serial,ppg,ppg_h,timestamp
0,-127.0,-62.0,2021-05-06 21:08:43+00:00
1,71.0,-62.0,2021-05-06 21:08:43+00:00
2,24.0,-62.0,2021-05-06 21:08:43+00:00
3,8.0,-62.0,2021-05-06 21:08:43+00:00
4,-13.0,-63.0,2021-05-06 21:08:43+00:00
5,-72.0,-62.0,2021-05-06 21:08:43+00:00
6,-123.0,-61.0,2021-05-06 21:08:43+00:00
7,81.0,-61.0,2021-05-06 21:08:43+00:00
8,-106.0,-62.0,2021-05-06 21:08:43+00:00
9,-123.0,-62.0,2021-05-06 21:08:43+00:00
10,-75.0,-62.0,2021-05-06 21:08:43+00:00
11,21.0,-61.0,2021-05-06 21:08:43+00:00
12,94.0,-61.0,2021-05-06 21:08:43+00:00
13,-97.0,-61.0,2021-05-06 21:08:43+00:00
14,-80.0,-61.0,2021-05-06 21:08:43+00:00
15,-87.0,-61.0,2021-05-06 21:08:43+00:00
16,97.0,-61.0,2021-05-06 21:08:43+00:00
17,-24.0,-62.0,2021-05-06 21:08:43+00:00
18,127.0,-62.0,2021-05-06 21:08:43+00:00
19,53.0,-62.0,2021-05-06 21:08:43+00:00
20,36.0,-62.0,2021-05-06 21:08:43+00:00
21,64.0,-62.0,2021-05-06 21:08:43+00:00
22,-83.0,-62.0,2021-05-06 21:08:43+00:00
23,-120.0,-61.0,2021-05-06 21:08:43+00:00
24,33.0,-72.0,2021-05-06 21:08:43+00:00
0,97.0,-60.0,2021-05-06 21:08:44+00:00
1,68.0,-61.0,2021-05-06 21:08:44+00:00
2,37.0,-61.0,2021-05-06 21:08:44+00:00
3,18.0,-61.0,2021-05-06 21:08:44+00:00
4,14.0,-61.0,2021-05-06 21:08:44+00:00
5,46.0,-61.0,2021-05-06 21:08:44+00:00
6,83.0,-61.0,2021-05-06 21:08:44+00:00
7,31.0,-61.0,2021-05-06 21:08:44+00:00
8,-79.0,-62.0,2021-05-06 21:08:44+00:00
9,69.0,-62.0,2021-05-06 21:08:44+00:00
10,6.0,-62.0,2021-05-06 21:08:44+00:00
11,-22.0,-63.0,2021-05-06 21:08:44+00:00
12,-49.0,-63.0,2021-05-06 21:08:44+00:00
13,-61.0,-63.0,2021-05-06 21:08:44+00:00
14,-72.0,-63.0,2021-05-06 21:08:44+00:00
15,-85.0,-63.0,2021-05-06 21:08:44+00:00
16,-91.0,-63.0,2021-05-06 21:08:44+00:00
17,-102.0,-63.0,2021-05-06 21:08:44+00:00
18,-98.0,-63.0,2021-05-06 21:08:44+00:00
19,-94.0,-63.0,2021-05-06 21:08:44+00:00
20,-81.0,-63.0,2021-05-06 21:08:44+00:00
21,-70.0,-63.0,2021-05-06 21:08:44+00:00
22,-119.0,-63.0,2021-05-06 21:08:44+00:00
23,18.0,-63.0,2021-05-06 21:08:44+00:00
24,-107.0,-50.0,2021-05-06 21:08:44+00:00
0,47.0,-64.0,2021-05-06 21:08:45+00:00
1,-31.0,-65.0,2021-05-06 21:08:45+00:00
2,-83.0,-65.0,2021-05-06 21:08:45+00:00
3,-126.0,-65.0,2021-05-06 21:08:45+00:00
4,83.0,-65.0,2021-05-06 21:08:45+00:00
5,43.0,-65.0,2021-05-06 21:08:45+00:00
6,21.0,-65.0,2021-05-06 21:08:45+00:00
7,19.0,-65.0,2021-05-06 21:08:45+00:00
8,35.0,-65.0,2021-05-06 21:08:45+00:00
9,49.0,-65.0,2021-05-06 21:08:45+00:00
10,74.0,-65.0,2021-05-06 21:08:45+00:00
11,97.0,-65.0,2021-05-06 21:08:45+00:00
12,109.0,-65.0,2021-05-06 21:08:45+00:00
13,64.0,-65.0,2021-05-06 21:08:45+00:00
14,-39.0,-66.0,2021-05-06 21:08:45+00:00
15,-108.0,-66.0,2021-05-06 21:08:45+00:00
16,78.0,-66.0,2021-05-06 21:08:45+00:00
17,37.0,-66.0,2021-05-06 21:08:45+00:00
18,-1.0,-67.0,2021-05-06 21:08:45+00:00
19,-8.0,-67.0,2021-05-06 21:08:45+00:00
20,-15.0,-67.0,2021-05-06 21:08:45+00:00
21,-49.0,-67.0,2021-05-06 21:08:45+00:00
22,-104.0,-67.0,2021-05-06 21:08:45+00:00
23,124.0,-67.0,2021-05-06 21:08:45+00:00
24,119.0,-79.0,2021-05-06 21:08:45+00:00
0,118.0,-67.0,2021-05-06 21:08:46+00:00
1,-114.0,-67.0,2021-05-06 21:08:46+00:00
2,-58.0,-67.0,2021-05-06 21:08:46+00:00
3,-10.0,-67.0,2021-05-06 21:08:46+00:00
4,-4.0,-67.0,2021-05-06 21:08:46+00:00
5,-61.0,-67.0,2021-05-06 21:08:46+00:00
6,117.0,-67.0,2021-05-06 21:08:46+00:00
7,54.0,-67.0,2021-05-06 21:08:46+00:00
8,26.0,-67.0,2021-05-06 21:08:46+00:00
9,9.0,-67.0,2021-05-06 21:08:46+00:00
10,21.0,-67.0,2021-05-06 21:08:46+00:00
11,56.0,-67.0,2021-05-06 21:08:46+00:00
12,82.0,-67.0,2021-05-06 21:08:46+00:00
13,-112.0,-67.0,2021-05-06 21:08:46+00:00
14,-12.0,-67.0,2021-05-06 21:08:46+00:00
15,29.0,-66.0,2021-05-06 21:08:46+00:00
16,61.0,-66.0,2021-05-06 21:08:46+00:00
17,-9.0,-67.0,2021-05-06 21:08:46+00:00
18,-38.0,-67.0,2021-05-06 21:08:46+00:00
19,-10.0,-67.0,2021-05-06 21:08:46+00:00
20,69.0,-66.0,2021-05-06 21:08:46+00:00
21,-111.0,-65.0,2021-05-06 21:08:46+00:00
22,-28.0,-64.0,2021-05-06 21:08:46+00:00
23,-80.0,-63.0,2021-05-06 21:08:46+00:00
24,-30.0,-58.0,2021-05-06 21:08:46+00:00
0,116.0,-64.0,2021-05-06 21:08:47+00:00
1,-110.0,-64.0,2021-05-06 21:08:47+00:00
2,-63.0,-64.0,2021-05-06 21:08:47+00:00
3,-16.0,-64.0,2021-05-06 21:08:47+00:00
4,66.0,-63.0,2021-05-06 21:08:47+00:00
5,-87.0,-63.0,2021-05-06 21:08:47+00:00
6,16.0,-62.0,2021-05-06 21:08:47+00:00
7,79.0,-62.0,2021-05-06 21:08:47+00:00
8,-44.0,-62.0,2021-05-06 21:08:47+00:00
9,-3.0,-62.0,2021-05-06 21:08:47+00:00
10,-26.0,-63.0,2021-05-06 21:08:47+00:00
11,-117.0,-63.0,2021-05-06 21:08:47+00:00
12,60.0,-63.0,2021-05-06 21:08:47+00:00
13,11.0,-63.0,2021-05-06 21:08:47+00:00
14,-26.0,-64.0,2021-05-06 21:08:47+00:00
15,-47.0,-64.0,2021-05-06 21:08:47+00:00
16,-55.0,-64.0,2021-05-06 21:08:47+00:00
17,-50.0,-64.0,2021-05-06 21:08:47+00:00
18,-47.0,-64.0,2021-05-06 21:08:47+00:00
19,-45.0,-64.0,2021-05-06 21:08:47+00:00
20,-36.0,-64.0,2021-05-06 21:08:47+00:00
21,-19.0,-64.0,2021-05-06 21:08:47+00:00
22,8.0,-63.0,2021-05-06 21:08:47+00:00
23,43.0,-63.0,2021-05-06 21:08:47+00:00
24,89.0,6.0,2021-05-06 21:08:47+00:00
0,-114.0,-63.0,2021-05-06 21:08:48+00:00
1,-50.0,-63.0,2021-05-06 21:08:48+00:00
2,-14.0,-63.0,2021-05-06 21:08:48+00:00
3,-51.0,-63.0,2021-05-06 21:08:48+00:00
4,-125.0,-63.0,2021-05-06 21:08:48+00:00
5,62.0,-63.0,2021-05-06 21:08:48+00:00
6,26.0,-63.0,2021-05-06 21:08:48+00:00
7,2.0,-63.0,2021-05-06 21:08:48+00:00
8,4.0,-63.0,2021-05-06 21:08:48+00:00
9,13.0,-63.0,2021-05-06 21:08:48+00:00
10,26.0,-63.0,2021-05-06 21:08:48+00:00
11,43.0,-63.0,2021-05-06 21:08:48+00:00
12,68.0,-63.0,2021-05-06 21:08:48+00:00
13,106.0,-63.0,2021-05-06 21:08:48+00:00
14,-117.0,-63.0,2021-05-06 21:08:48+00:00
15,-74.0,-63.0,2021-05-06 21:08:48+00:00
16,-22.0,-63.0,2021-05-06 21:08:48+00:00
17,21.0,-62.0,2021-05-06 21:08:48+00:00
18,38.0,-62.0,2021-05-06 21:08:48+00:00
19,-13.0,-63.0,2021-05-06 21:08:48+00:00
20,-92.0,-63.0,2021-05-06 21:08:48+00:00
21,113.0,-63.0,2021-05-06 21:08:48+00:00
22,87.0,-63.0,2021-05-06 21:08:48+00:00
23,79.0,-63.0,2021-05-06 21:08:48+00:00
24,83.0,-94.0,2021-05-06 21:08:48+00:00
0,97.0,-63.0,2021-05-06 21:08:49+00:00
1,108.0,-63.0,2021-05-06 21:08:49+00:00
2,116.0,-63.0,2021-05-06 21:08:49+00:00
3,-126.0,-63.0,2021-05-06 21:08:49+00:00
4,-90.0,-63.0,2021-05-06 21:08:49+00:00
5,-50.0,-63.0,2021-05-06 21:08:49+00:00
6,12.0,-62.0,2021-05-06 21:08:49+00:00
7,59.0,-62.0,2021-05-06 21:08:49+00:00
8,103.0,-62.0,2021-05-06 21:08:49+00:00
9,39.0,-62.0,2021-05-06 21:08:49+00:00
10,-85.0,-63.0,2021-05-06 21:08:49+00:00
11,23.0,-63.0,2021-05-06 21:08:49+00:00
12,-25.0,-64.0,2021-05-06 21:08:49+00:00
13,-74.0,-64.0,2021-05-06 21:08:49+00:00
14,102.0,-63.0,2021-05-06 21:08:49+00:00
15,-98.0,-62.0,2021-05-06 21:08:49+00:00
16,-62.0,-61.0,2021-05-06 21:08:49+00:00
17,-58.0,-62.0,2021-05-06 21:08:49+00:00
18,-22.0,-62.0,2021-05-06 21:08:49+00:00
19,7.0,-61.0,2021-05-06 21:08:49+00:00
20,60.0,-61.0,2021-05-06 21:08:49+00:00
21,114.0,-61.0,2021-05-06 21:08:49+00:00
22,-109.0,-61.0,2021-05-06 21:08:49+00:00
23,-89.0,-61.0,2021-05-06 21:08:49+00:00
24,127.0,-99.0,2021-05-06 21:08:49+00:00
0,21.0,-61.0,2021-05-06 21:08:50+00:00
1,-102.0,-62.0,2021-05-06 21:08:50+00:00
2,47.0,-62.0,2021-05-06 21:08:50+00:00
3,-28.0,-63.0,2021-05-06 21:08:50+00:00
4,-70.0,-63.0,2021-05-06 21:08:50+00:00
5,-91.0,-63.0,2021-05-06 21:08:50+00:00
6,-102.0,-63.0,2021-05-06 21:08:50+00:00
7,-111.0,-63.0,2021-05-06 21:08:50+00:00
8,-121.0,-63.0,2021-05-06 21:08:50+00:00
9,-128.0,-63.0,2021-05-06 21:08:50+00:00
10,-125.0,-63.0,2021-05-06 21:08:50+00:00
11,-116.0,-63.0,2021-05-06 21:08:50+00:00
12,-101.0,-63.0,2021-05-06 21:08:50+00:00
13,-85.0,-63.0,2021-05-06 21:08:50+00:00
14,-65.0,-63.0,2021-05-06 21:08:50+00:00
15,-75.0,-63.0,2021-05-06 21:08:50+00:00
16,78.0,-63.0,2021-05-06 21:08:50+00:00
17,-51.0,-64.0,2021-05-06 21:08:50+00:00
18,103.0,-64.0,2021-05-06 21:08:50+00:00
19,37.0,-64.0,2021-05-06 21:08:50+00:00
20,1.0,-64.0,2021-05-06 21:08:50+00:00
21,-14.0,-65.0,2021-05-06 21:08:50+00:00
22,-24.0,-65.0,2021-05-06 21:08:50+00:00
23,-32.0,-65.0,2021-05-06 21:08:50+00:00
24,-37.0,-112.0,2021-05-06 21:08:50+00:00
0,-38.0,-65.0,2021-05-06 21:08:51+00:00
1,-22.0,-65.0,2021-05-06 21:08:51+00:00
2,-7.0,-65.0,2021-05-06 21:08:51+00:00
3,18.0,-64.0,2021-05-06 21:08:51+00:00
4,49.0,-64.0,2021-05-06 21:08:51+00:00
5,75.0,-64.0,2021-05-06 21:08:51+00:00
6,39.0,-64.0,2021-05-06 21:08:51+00:00
7,-74.0,-65.0,2021-05-06 21:08:51+00:00
8,72.0,-65.0,2021-05-06 21:08:51+00:00
9,-6.0,-66.0,2021-05-06 21:08:51+00:00
10,-46.0,-66.0,2021-05-06 21:08:51+00:00
11,-61.0,-66.0,2021-05-06 21:08:51+00:00
12,-60.0,-66.0,2021-05-06 21:08:51+00:00
13,-64.0,-66.0,2021-05-06 21:08:51+00:00
14,-67.0,-66.0,2021-05-06 21:08:51+00:00
15,-61.0,-66.0,2021-05-06 21:08:51+00:00
16,-50.0,-66.0,2021-05-06 21:08:51+00:00
17,-31.0,-66.0,2021-05-06 21:08:51+00:00
18,-4.0,-66.0,2021-05-06 21:08:51+00:00
19,27.0,-65.0,2021-05-06 21:08:51+00:00
20,58.0,-65.0,2021-05-06 21:08:51+00:00
21,48.0,-65.0,2021-05-06 21:08:51+00:00
22,-47.0,-66.0,2021-05-06 21:08:51+00:00
23,97.0,-66.0,2021-05-06 21:08:51+00:00
24,23.0,-127.0,2021-05-06 21:08:51+00:00
0,-18.0,-67.0,2021-05-06 21:08:52+00:00
1,-35.0,-67.0,2021-05-06 21:08:52+00:00
2,-33.0,-67.0,2021-05-06 21:08:52+00:00
3,-29.0,-67.0,2021-05-06 21:08:52+00:00
4,-22.0,-67.0,2021-05-06 21:08:52+00:00
5,-15.0,-67.0,2021-05-06 21:08:52+00:00
6,1.0,-66.0,2021-05-06 21:08:52+00:00
7,28.0,-66.0,2021-05-06 21:08:52+00:00
8,59.0,-66.0,2021-05-06 21:08:52+00:00
9,100.0,-66.0,2021-05-06 21:08:52+00:00
10,-111.0,-66.0,2021-05-06 21:08:52+00:00
11,-72.0,-66.0,2021-05-06 21:08:52+00:00
12,-92.0,-66.0,2021-05-06 21:08:52+00:00
13,66.0,-66.0,2021-05-06 21:08:52+00:00
14,-37.0,-67.0,2021-05-06 21:08:52+00:00
15,-100.0,-67.0,2021-05-06 21:08:52+00:00
16,126.0,-67.0,2021-05-06 21:08:52+00:00
17,116.0,-67.0,2021-05-06 21:08:52+00:00
18,117.0,-67.0,2021-05-06 21:08:52+00:00
19,113.0,-67.0,2021-05-06 21:08:52+00:00
20,104.0,-67.0,2021-05-06 21:08:52+00:00
21,104.0,-67.0,2021-05-06 21:08:52+00:00
22,116.0,-67.0,2021-05-06 21:08:52+00:00
23,-121.0,-67.0,2021-05-06 21:08:52+00:00
24,-90.0,-8.0,2021-05-06 21:08:52+00:00
0,-53.0,-67.0,2021-05-06 21:08:53+00:00
1,-6.0,-67.0,2021-05-06 21:08:53+00:00
2,45.0,-66.0,2021-05-06 21:08:53+00:00
3,44.0,-66.0,2021-05-06 21:08:53+00:00
4,-34.0,-67.0,2021-05-06 21:08:53+00:00
5,-120.0,-67.0,2021-05-06 21:08:53+00:00
6,81.0,-67.0,2021-05-06 21:08:53+00:00
7,60.0,-67.0,2021-05-06 21:08:53+00:00
8,55.0,-67.0,2021-05-06 21:08:53+00:00
9,55.0,-67.0,2021-05-06 21:08:53+00:00
10,66.0,-67.0,2021-05-06 21:08:53+00:00
11,83.0,-67.0,2021-05-06 21:08:53+00:00
12,97.0,-67.0,2021-05-06 21:08:53+00:00
13,113.0,-67.0,2021-05-06 21:08:53+00:00
14,-103.0,-67.0,2021-05-06 21:08:53+00:00
15,-63.0,-67.0,2021-05-06 21:08:53+00:00
16,-18.0,-67.0,2021-05-06 21:08:53+00:00
17,10.0,-66.0,2021-05-06 21:08:53+00:00
18,61.0,-66.0,2021-05-06 21:08:53+00:00
19,69.0,-66.0,2021-05-06 21:08:53+00:00
20,22.0,-66.0,2021-05-06 21:08:53+00:00
21,-55.0,-67.0,2021-05-06 21:08:53+00:00
22,-127.0,-67.0,2021-05-06 21:08:53+00:00
23,118.0,-67.0,2021-05-06 21:08:53+00:00
24,120.0,-21.0,2021-05-06 21:08:53+00:00
0,-123.0,-67.0,2021-05-06 21:08:54+00:00
1,-100.0,-67.0,2021-05-06 21:08:54+00:00
2,-79.0,-67.0,2021-05-06 21:08:54+00:00
3,-60.0,-67.0,2021-05-06 21:08:54+00:00
4,-32.0,-67.0,2021-05-06 21:08:54+00:00
5,10.0,-66.0,2021-05-06 21:08:54+00:00
6,71.0,-66.0,2021-05-06 21:08:54+00:00
7,-123.0,-66.0,2021-05-06 21:08:54+00:00
8,-60.0,-66.0,2021-05-06 21:08:54+00:00
9,-31.0,-66.0,2021-05-06 21:08:54+00:00
10,-50.0,-66.0,2021-05-06 21:08:54+00:00
11,-106.0,-66.0,2021-05-06 21:08:54+00:00
12,61.0,-66.0,2021-05-06 21:08:54+00:00
13,-16.0,-67.0,2021-05-06 21:08:54+00:00
14,-45.0,-67.0,2021-05-06 21:08:54+00:00
15,-34.0,-67.0,2021-05-06 21:08:54+00:00
16,-14.0,-67.0,2021-05-06 21:08:54+00:00
17,4.0,-66.0,2021-05-06 21:08:54+00:00
18,22.0,-66.0,2021-05-06 21:08:54+00:00
19,54.0,-66.0,2021-05-06 21:08:54+00:00
20,98.0,-66.0,2021-05-06 21:08:54+00:00
21,-105.0,-66.0,2021-05-06 21:08:54+00:00
22,-29.0,-66.0,2021-05-06 21:08:54+00:00
23,67.0,-65.0,2021-05-06 21:08:54+00:00
24,-87.0,42.0,2021-05-06 21:08:54+00:00
0,74.0,-64.0,2021-05-06 21:08:55+00:00
1,-44.0,-64.0,2021-05-06 21:08:55+00:00
2,-10.0,-64.0,2021-05-06 21:08:55+00:00
3,-22.0,-64.0,2021-05-06 21:08:55+00:00
4,-73.0,-64.0,2021-05-06 21:08:55+00:00
5,72.0,-64.0,2021-05-06 21:08:55+00:00
6,-95.0,-65.0,2021-05-06 21:08:55+00:00
7,-75.0,-65.0,2021-05-06 21:08:55+00:00
8,-22.0,-65.0,2021-05-06 21:08:55+00:00
9,32.0,-64.0,2021-05-06 21:08:55+00:00
10,29.0,-64.0,2021-05-06 21:08:55+00:00
11,78.0,-64.0,2021-05-06 21:08:55+00:00
12,105.0,-64.0,2021-05-06 21:08:55+00:00
13,84.0,-63.0,2021-05-06 21:08:55+00:00
14,-25.0,-62.0,2021-05-06 21:08:55+00:00
15,33.0,-61.0,2021-05-06 21:08:55+00:00
16,27.0,-61.0,2021-05-06 21:08:55+00:00
17,4.0,-61.0,2021-05-06 21:08:55+00:00
18,-82.0,-62.0,2021-05-06 21:08:55+00:00
19,78.0,-62.0,2021-05-06 21:08:55+00:00
20,15.0,-62.0,2021-05-06 21:08:55+00:00
21,-8.0,-63.0,2021-05-06 21:08:55+00:00
22,-104.0,-63.0,2021-05-06 21:08:55+00:00
23,117.0,-63.0,2021-05-06 21:08:55+00:00
24,121.0,108.0,2021-05-06 21:08:55+00:00
0,111.0,-63.0,2021-05-06 21:08:56+00:00
1,77.0,-63.0,2021-05-06 21:08:56+00:00
2,83.0,-63.0,2021-05-06 21:08:56+00:00
3,121.0,-63.0,2021-05-06 21:08:56+00:00
4,-99.0,-63.0,2021-05-06 21:08:56+00:00
5,-68.0,-63.0,2021-05-06 21:08:56+00:00
6,-36.0,-63.0,2021-05-06 21:08:56+00:00
7,2.0,-62.0,2021-05-06 21:08:56+00:00
8,7.0,-62.0,2021-05-06 21:08:56+00:00
9,-76.0,-63.0,2021-05-06 21:08:56+00:00
10,65.0,-63.0,2021-05-06 21:08:56+00:00
11,-25.0,-64.0,2021-05-06 21:08:56+00:00
12,-86.0,-64.0,2021-05-06 21:08:56+00:00
13,-114.0,-64.0,2021-05-06 21:08:56+00:00
14,-117.0,-64.0,2021-05-06 21:08:56+00:00
15,-116.0,-64.0,2021-05-06 21:08:56+00:00
16,-110.0,-64.0,2021-05-06 21:08:56+00:00
17,-111.0,-64.0,2021-05-06 21:08:56+00:00
18,-97.0,-64.0,2021-05-06 21:08:56+00:00
19,-87.0,-64.0,2021-05-06 21:08:56+00:00
20,-70.0,-64.0,2021-05-06 21:08:56+00:00
21,-45.0,-64.0,2021-05-06 21:08:56+00:00
22,-17.0,-64.0,2021-05-06 21:08:56+00:00
23,10.0,-63.0,2021-05-06 21:08:56+00:00
24,2.0,23.0,2021-05-06 21:08:56+00:00
0,-89.0,-64.0,2021-05-06 21:08:57+00:00
1,46.0,-64.0,2021-05-06 21:08:57+00:00
2,-42.0,-65.0,2021-05-06 21:08:57+00:00
3,-100.0,-65.0,2021-05-06 21:08:57+00:00
4,126.0,-65.0,2021-05-06 21:08:57+00:00
5,114.0,-65.0,2021-05-06 21:08:57+00:00
6,107.0,-65.0,2021-05-06 21:08:57+00:00
7,103.0,-65.0,2021-05-06 21:08:57+00:00
8,102.0,-65.0,2021-05-06 21:08:57+00:00
9,105.0,-65.0,2021-05-06 21:08:57+00:00
10,118.0,-65.0,2021-05-06 21:08:57+00:00
11,-118.0,-65.0,2021-05-06 21:08:57+00:00
12,-100.0,-65.0,2021-05-06 21:08:57+00:00
13,-71.0,-65.0,2021-05-06 21:08:57+00:00
14,-42.0,-65.0,2021-05-06 21:08:57+00:00
15,-23.0,-65.0,2021-05-06 21:08:57+00:00
16,-84.0,-65.0,2021-05-06 21:08:57+00:00
17,61.0,-65.0,2021-05-06 21:08:57+00:00
18,-30.0,-66.0,2021-05-06 21:08:57+00:00
19,-87.0,-66.0,2021-05-06 21:08:57+00:00
20,-112.0,-66.0,2021-05-06 21:08:57+00:00
21,-106.0,-66.0,2021-05-06 21:08:57+00:00
22,-84.0,-66.0,2021-05-06 21:08:57+00:00
23,-51.0,-66.0,2021-05-06 21:08:57+00:00
24,-27.0,-19.0,2021-05-06 21:08:57+00:00
0,-7.0,-66.0,2021-05-06 21:08:58+00:00
1,12.0,-65.0,2021-05-06 21:08:58+00:00
2,33.0,-65.0,2021-05-06 21:08:58+00:00
3,60.0,-65.0,2021-05-06 21:08:58+00:00
4,104.0,-65.0,2021-05-06 21:08:58+00:00
5,-95.0,-65.0,2021-05-06 21:08:58+00:00
6,-40.0,-65.0,2021-05-06 21:08:58+00:00
7,-59.0,-65.0,2021-05-06 21:08:58+00:00
8,106.0,-65.0,2021-05-06 21:08:58+00:00
9,12.0,-65.0,2021-05-06 21:08:58+00:00
10,-38.0,-66.0,2021-05-06 21:08:58+00:00
11,-57.0,-66.0,2021-05-06 21:08:58+00:00
12,-60.0,-66.0,2021-05-06 21:08:58+00:00
13,-50.0,-66.0,2021-05-06 21:08:58+00:00
14,-44.0,-66.0,2021-05-06 21:08:58+00:00
15,-48.0,-66.0,2021-05-06 21:08:58+00:00
16,-44.0,-66.0,2021-05-06 21:08:58+00:00
17,-36.0,-66.0,2021-05-06 21:08:58+00:00
18,-21.0,-66.0,2021-05-06 21:08:58+00:00
19,10.0,-65.0,2021-05-06 21:08:58+00:00
20,57.0,-65.0,2021-05-06 21:08:58+00:00
21,95.0,-65.0,2021-05-06 21:08:58+00:00
22,-126.0,-65.0,2021-05-06 21:08:58+00:00
23,77.0,-65.0,2021-05-06 21:08:58+00:00
24,-36.0,64.0,2021-05-06 21:08:58+00:00
0,126.0,-66.0,2021-05-06 21:08:59+00:00
1,61.0,-66.0,2021-05-06 21:08:59+00:00
2,21.0,-66.0,2021-05-06 21:08:59+00:00
3,12.0,-66.0,2021-05-06 21:08:59+00:00
4,20.0,-66.0,2021-05-06 21:08:59+00:00
5,38.0,-66.0,2021-05-06 21:08:59+00:00
6,56.0,-66.0,2021-05-06 21:08:59+00:00
7,89.0,-66.0,2021-05-06 21:08:59+00:00
8,-127.0,-66.0,2021-05-06 21:08:59+00:00
9,-73.0,-66.0,2021-05-06 21:08:59+00:00
10,-15.0,-66.0,2021-05-06 21:08:59+00:00
11,50.0,-65.0,2021-05-06 21:08:59+00:00
12,105.0,-65.0,2021-05-06 21:08:59+00:00
13,-110.0,-65.0,2021-05-06 21:08:59+00:00
14,104.0,-65.0,2021-05-06 21:08:59+00:00
15,-12.0,-66.0,2021-05-06 21:08:59+00:00
16,114.0,-66.0,2021-05-06 21:08:59+00:00
17,6.0,-66.0,2021-05-06 21:08:59+00:00
18,-96.0,-67.0,2021-05-06 21:08:59+00:00
19,119.0,-67.0,2021-05-06 21:08:59+00:00
20,-118.0,-67.0,2021-05-06 21:08:59+00:00
21,-42.0,-67.0,2021-05-06 21:08:59+00:00
22,10.0,-66.0,2021-05-06 21:08:59+00:00
23,23.0,-66.0,2021-05-06 21:08:59+00:00
24,44.0,-118.0,2021-05-06 21:08:59+00:00
0,63.0,-66.0,2021-05-06 21:09:00+00:00
1,48.0,-66.0,2021-05-06 21:09:00+00:00
2,-14.0,-67.0,2021-05-06 21:09:00+00:00
3,118.0,-67.0,2021-05-06 21:09:00+00:00
4,2.0,-67.0,2021-05-06 21:09:00+00:00
5,124.0,-68.0,2021-05-06 21:09:00+00:00
6,-34.0,-69.0,2021-05-06 21:09:00+00:00
7,89.0,-69.0,2021-05-06 21:09:00+00:00
8,28.0,-69.0,2021-05-06 21:09:00+00:00
9,-3.0,-70.0,2021-05-06 21:09:00+00:00
10,-6.0,-70.0,2021-05-06 21:09:00+00:00
11,6.0,-69.0,2021-05-06 21:09:00+00:00
12,21.0,-69.0,2021-05-06 21:09:00+00:00
13,72.0,-69.0,2021-05-06 21:09:00+00:00
14,-99.0,-69.0,2021-05-06 21:09:00+00:00
15,0.0,-68.0,2021-05-06 21:09:00+00:00
16,-116.0,-68.0,2021-05-06 21:09:00+00:00
17,100.0,-67.0,2021-05-06 21:09:00+00:00
18,31.0,-66.0,2021-05-06 21:09:00+00:00
19,97.0,-66.0,2021-05-06 21:09:00+00:00
20,88.0,-66.0,2021-05-06 21:09:00+00:00
21,-92.0,-66.0,2021-05-06 21:09:00+00:00
22,11.0,-65.0,2021-05-06 21:09:00+00:00
23,107.0,-65.0,2021-05-06 21:09:00+00:00
24,-27.0,54.0,2021-05-06 21:09:00+00:00
0,98.0,-64.0,2021-05-06 21:09:01+00:00
1,-43.0,-64.0,2021-05-06 21:09:01+00:00
2,77.0,-63.0,2021-05-06 21:09:01+00:00
3,-29.0,-63.0,2021-05-06 21:09:01+00:00
4,125.0,-62.0,2021-05-06 21:09:01+00:00
5,-15.0,-62.0,2021-05-06 21:09:01+00:00
6,120.0,-61.0,2021-05-06 21:09:01+00:00
7,17.0,-60.0,2021-05-06 21:09:01+00:00
8,-73.0,-60.0,2021-05-06 21:09:01+00:00
9,108.0,-59.0,2021-05-06 21:09:01+00:00
10,39.0,-58.0,2021-05-06 21:09:01+00:00
11,-90.0,-58.0,2021-05-06 21:09:01+00:00
12,24.0,-57.0,2021-05-06 21:09:01+00:00
13,-126.0,-57.0,2021-05-06 21:09:01+00:00
14,-14.0,-57.0,2021-05-06 21:09:01+00:00
15,110.0,-56.0,2021-05-06 21:09:01+00:00
16,-7.0,-56.0,2021-05-06 21:09:01+00:00
17,-126.0,-55.0,2021-05-06 21:09:01+00:00
18,-5.0,-55.0,2021-05-06 21:09:01+00:00
19,113.0,-54.0,2021-05-06 21:09:01+00:00
20,-29.0,-54.0,2021-05-06 21:09:01+00:00
21,71.0,-53.0,2021-05-06 21:09:01+00:00
22,-84.0,-53.0,2021-05-06 21:09:01+00:00
23,6.0,-52.0,2021-05-06 21:09:01+00:00
24,95.0,30.0,2021-05-06 21:09:01+00:00
0,126.0,-52.0,2021-05-06 21:09:02+00:00
1,74.0,-52.0,2021-05-06 21:09:02+00:00
2,-3.0,-53.0,2021-05-06 21:09:02+00:00
3,-77.0,-53.0,2021-05-06 21:09:02+00:00
4,122.0,-53.0,2021-05-06 21:09:02+00:00
5,-115.0,-53.0,2021-05-06 21:09:02+00:00
6,-70.0,-53.0,2021-05-06 21:09:02+00:00
7,-22.0,-53.0,2021-05-06 21:09:02+00:00
8,42.0,-52.0,2021-05-06 21:09:02+00:00
9,107.0,-52.0,2021-05-06 21:09:02+00:00
10,-90.0,-52.0,2021-05-06 21:09:02+00:00
11,-38.0,-52.0,2021-05-06 21:09:02+00:00
12,-1.0,-52.0,2021-05-06 21:09:02+00:00
13,63.0,-51.0,2021-05-06 21:09:02+00:00
14,-109.0,-51.0,2021-05-06 21:09:02+00:00
15,-61.0,-51.0,2021-05-06 21:09:02+00:00
16,-62.0,-51.0,2021-05-06 21:09:02+00:00
17,-69.0,-51.0,2021-05-06 21:09:02+00:00
18,-49.0,-51.0,2021-05-06 21:09:02+00:00
19,-4.0,-51.0,2021-05-06 21:09:02+00:00
20,53.0,-50.0,2021-05-06 21:09:02+00:00
21,116.0,-50.0,2021-05-06 21:09:02+00:00
22,-70.0,-50.0,2021-05-06 21:09:02+00:00
23,-8.0,-50.0,2021-05-06 21:09:02+00:00
24,48.0,-19.0,2021-05-06 21:09:02+00:00
0,98.0,-49.0,2021-05-06 21:09:03+00:00
1,-92.0,-49.0,2021-05-06 21:09:03+00:00
2,-24.0,-49.0,2021-05-06 21:09:03+00:00
3,54.0,-48.0,2021-05-06 21:09:03+00:00
4,110.0,-48.0,2021-05-06 21:09:03+00:00
5,94.0,-48.0,2021-05-06 21:09:03+00:00
6,38.0,-48.0,2021-05-06 21:09:03+00:00
7,-3.0,-49.0,2021-05-06 21:09:03+00:00
8,-8.0,-49.0,2021-05-06 21:09:03+00:00
9,9.0,-48.0,2021-05-06 21:09:03+00:00
10,53.0,-48.0,2021-05-06 21:09:03+00:00
11,98.0,-48.0,2021-05-06 21:09:03+00:00
12,-115.0,-48.0,2021-05-06 21:09:03+00:00
13,-71.0,-48.0,2021-05-06 21:09:03+00:00
14,-20.0,-48.0,2021-05-06 21:09:03+00:00
15,36.0,-47.0,2021-05-06 21:09:03+00:00
16,100.0,-47.0,2021-05-06 21:09:03+00:00
17,-87.0,-47.0,2021-05-06 21:09:03+00:00
18,-20.0,-47.0,2021-05-06 21:09:03+00:00
19,-7.0,-47.0,2021-05-06 21:09:03+00:00
20,-68.0,-47.0,2021-05-06 21:09:03+00:00
21,-126.0,-47.0,2021-05-06 21:09:03+00:00
22,112.0,-47.0,2021-05-06 21:09:03+00:00
23,119.0,-47.0,2021-05-06 21:09:03+00:00
24,-103.0,90.0,2021-05-06 21:09:03+00:00
0,-61.0,-47.0,2021-05-06 21:09:04+00:00
1,-12.0,-47.0,2021-05-06 21:09:04+00:00
2,33.0,-46.0,2021-05-06 21:09:04+00:00
3,80.0,-46.0,2021-05-06 21:09:04+00:00
4,-121.0,-46.0,2021-05-06 21:09:04+00:00
5,-47.0,-46.0,2021-05-06 21:09:04+00:00
6,27.0,-45.0,2021-05-06 21:09:04+00:00
7,-128.0,-45.0,2021-05-06 21:09:04+00:00
8,-55.0,-45.0,2021-05-06 21:09:04+00:00
9,-41.0,-45.0,2021-05-06 21:09:04+00:00
10,-94.0,-45.0,2021-05-06 21:09:04+00:00
11,95.0,-45.0,2021-05-06 21:09:04+00:00
12,51.0,-45.0,2021-05-06 21:09:04+00:00
13,36.0,-45.0,2021-05-06 21:09:04+00:00
14,39.0,-45.0,2021-05-06 21:09:04+00:00
15,45.0,-45.0,2021-05-06 21:09:04+00:00
16,36.0,-45.0,2021-05-06 21:09:04+00:00
17,32.0,-45.0,2021-05-06 21:09:04+00:00
18,41.0,-45.0,2021-05-06 21:09:04+00:00
19,61.0,-45.0,2021-05-06 21:09:04+00:00
20,93.0,-45.0,2021-05-06 21:09:04+00:00
21,121.0,-45.0,2021-05-06 21:09:04+00:00
22,-96.0,-45.0,2021-05-06 21:09:04+00:00
23,-60.0,-45.0,2021-05-06 21:09:04+00:00
24,-105.0,-57.0,2021-05-06 21:09:04+00:00
0,34.0,-45.0,2021-05-06 21:09:05+00:00
1,-70.0,-46.0,2021-05-06 21:09:05+00:00
2,-127.0,-46.0,2021-05-06 21:09:05+00:00
3,108.0,-46.0,2021-05-06 21:09:05+00:00
4,107.0,-46.0,2021-05-06 21:09:05+00:00
5,116.0,-46.0,2021-05-06 21:09:05+00:00
6,126.0,-46.0,2021-05-06 21:09:05+00:00
7,-118.0,-46.0,2021-05-06 21:09:05+00:00
8,-106.0,-46.0,2021-05-06 21:09:05+00:00
9,-76.0,-46.0,2021-05-06 21:09:05+00:00
10,-40.0,-46.0,2021-05-06 21:09:05+00:00
11,6.0,-45.0,2021-05-06 21:09:05+00:00
12,56.0,-45.0,2021-05-06 21:09:05+00:00
13,94.0,-45.0,2021-05-06 21:09:05+00:00
14,46.0,-45.0,2021-05-06 21:09:05+00:00
15,-77.0,-46.0,2021-05-06 21:09:05+00:00
16,65.0,-46.0,2021-05-06 21:09:05+00:00
17,-2.0,-47.0,2021-05-06 21:09:05+00:00
18,-27.0,-47.0,2021-05-06 21:09:05+00:00
19,-28.0,-47.0,2021-05-06 21:09:05+00:00
20,-24.0,-47.0,2021-05-06 21:09:05+00:00
21,-6.0,-47.0,2021-05-06 21:09:05+00:00
22,12.0,-46.0,2021-05-06 21:09:05+00:00
23,24.0,-46.0,2021-05-06 21:09:05+00:00
24,34.0,84.0,2021-05-06 21:09:05+00:00
0,44.0,-46.0,2021-05-06 21:09:06+00:00
1,64.0,-46.0,2021-05-06 21:09:06+00:00
2,94.0,-46.0,2021-05-06 21:09:06+00:00
3,-113.0,-46.0,2021-05-06 21:09:06+00:00
4,-64.0,-46.0,2021-05-06 21:09:06+00:00
5,-115.0,-46.0,2021-05-06 21:09:06+00:00
6,24.0,-46.0,2021-05-06 21:09:06+00:00
7,-68.0,-47.0,2021-05-06 21:09:06+00:00
8,-123.0,-47.0,2021-05-06 21:09:06+00:00
9,123.0,-47.0,2021-05-06 21:09:06+00:00
10,-115.0,-47.0,2021-05-06 21:09:06+00:00
11,-76.0,-47.0,2021-05-06 21:09:06+00:00
12,-43.0,-47.0,2021-05-06 21:09:06+00:00
13,-6.0,-47.0,2021-05-06 21:09:06+00:00
14,32.0,-46.0,2021-05-06 21:09:06+00:00
15,78.0,-46.0,2021-05-06 21:09:06+00:00
16,-120.0,-46.0,2021-05-06 21:09:06+00:00
17,-65.0,-46.0,2021-05-06 21:09:06+00:00
18,-6.0,-46.0,2021-05-06 21:09:06+00:00
19,56.0,-45.0,2021-05-06 21:09:06+00:00
20,111.0,-45.0,2021-05-06 21:09:06+00:00
21,76.0,-45.0,2021-05-06 21:09:06+00:00
22,-35.0,-46.0,2021-05-06 21:09:06+00:00
23,120.0,-46.0,2021-05-06 21:09:06+00:00
24,69.0,-105.0,2021-05-06 21:09:06+00:00
0,53.0,-46.0,2021-05-06 21:09:07+00:00
1,62.0,-46.0,2021-05-06 21:09:07+00:00
2,81.0,-46.0,2021-05-06 21:09:07+00:00
3,103.0,-46.0,2021-05-06 21:09:07+00:00
4,123.0,-46.0,2021-05-06 21:09:07+00:00
5,-106.0,-46.0,2021-05-06 21:09:07+00:00
6,-75.0,-46.0,2021-05-06 21:09:07+00:00
7,-40.0,-46.0,2021-05-06 21:09:07+00:00
8,5.0,-45.0,2021-05-06 21:09:07+00:00
9,57.0,-45.0,2021-05-06 21:09:07+00:00
10,115.0,-45.0,2021-05-06 21:09:07+00:00
11,-103.0,-45.0,2021-05-06 21:09:07+00:00
12,79.0,-45.0,2021-05-06 21:09:07+00:00
13,-44.0,-46.0,2021-05-06 21:09:07+00:00
14,120.0,-46.0,2021-05-06 21:09:07+00:00
15,77.0,-46.0,2021-05-06 21:09:07+00:00
16,73.0,-46.0,2021-05-06 21:09:07+00:00
17,88.0,-46.0,2021-05-06 21:09:07+00:00
18,117.0,-46.0,2021-05-06 21:09:07+00:00
19,-111.0,-46.0,2021-05-06 21:09:07+00:00
20,-87.0,-46.0,2021-05-06 21:09:07+00:00
21,-54.0,-46.0,2021-05-06 21:09:07+00:00
22,-16.0,-46.0,2021-05-06 21:09:07+00:00
23,30.0,-45.0,2021-05-06 21:09:07+00:00
24,90.0,88.0,2021-05-06 21:09:07+00:00
0,-109.0,-45.0,2021-05-06 21:09:08+00:00
1,-46.0,-45.0,2021-05-06 21:09:08+00:00
2,4.0,-44.0,2021-05-06 21:09:08+00:00
3,-37.0,-45.0,2021-05-06 21:09:08+00:00
4,90.0,-45.0,2021-05-06 21:09:08+00:00
5,-20.0,-46.0,2021-05-06 21:09:08+00:00
6,-84.0,-46.0,2021-05-06 21:09:08+00:00
7,-103.0,-46.0,2021-05-06 21:09:08+00:00
8,-90.0,-46.0,2021-05-06 21:09:08+00:00
9,-66.0,-46.0,2021-05-06 21:09:08+00:00
10,-40.0,-46.0,2021-05-06 21:09:08+00:00
11,-17.0,-46.0,2021-05-06 21:09:08+00:00
12,13.0,-45.0,2021-05-06 21:09:08+00:00
13,47.0,-45.0,2021-05-06 21:09:08+00:00
14,89.0,-45.0,2021-05-06 21:09:08+00:00
15,-120.0,-45.0,2021-05-06 21:09:08+00:00
16,-63.0,-45.0,2021-05-06 21:09:08+00:00
17,-5.0,-45.0,2021-05-06 21:09:08+00:00
18,57.0,-44.0,2021-05-06 21:09:08+00:00
19,87.0,-44.0,2021-05-06 21:09:08+00:00
20,3.0,-44.0,2021-05-06 21:09:08+00:00
21,-124.0,-45.0,2021-05-06 21:09:08+00:00
22,46.0,-45.0,2021-05-06 21:09:08+00:00
23,4.0,-45.0,2021-05-06 21:09:08+00:00
24,-3.0,3.0,2021-05-06 21:09:08+00:00
0,14.0,-45.0,2021-05-06 21:09:09+00:00
1,38.0,-45.0,2021-05-06 21:09:09+00:00
2,69.0,-45.0,2021-05-06 21:09:09+00:00
3,96.0,-45.0,2021-05-06 21:09:09+00:00
4,126.0,-45.0,2021-05-06 21:09:09+00:00
5,-90.0,-45.0,2021-05-06 21:09:09+00:00
6,-39.0,-45.0,2021-05-06 21:09:09+00:00
7,13.0,-44.0,2021-05-06 21:09:09+00:00
8,71.0,-44.0,2021-05-06 21:09:09+00:00
9,-127.0,-44.0,2021-05-06 21:09:09+00:00
10,-64.0,-44.0,2021-05-06 21:09:09+00:00
11,-40.0,-44.0,2021-05-06 21:09:09+00:00
12,-126.0,-44.0,2021-05-06 21:09:09+00:00
13,6.0,-44.0,2021-05-06 21:09:09+00:00
14,-73.0,-45.0,2021-05-06 21:09:09+00:00
15,-103.0,-45.0,2021-05-06 21:09:09+00:00
16,-103.0,-45.0,2021-05-06 21:09:09+00:00
17,-81.0,-45.0,2021-05-06 21:09:09+00:00
18,-57.0,-45.0,2021-05-06 21:09:09+00:00
19,-33.0,-45.0,2021-05-06 21:09:09+00:00
20,-10.0,-45.0,2021-05-06 21:09:09+00:00
21,22.0,-44.0,2021-05-06 21:09:09+00:00
22,57.0,-44.0,2021-05-06 21:09:09+00:00
23,104.0,-44.0,2021-05-06 21:09:09+00:00
24,-100.0,73.0,2021-05-06 21:09:09+00:00
0,-44.0,-44.0,2021-05-06 21:09:10+00:00
1,16.0,-43.0,2021-05-06 21:09:10+00:00
2,45.0,-43.0,2021-05-06 21:09:10+00:00
3,-32.0,-44.0,2021-05-06 21:09:10+00:00
4,97.0,-44.0,2021-05-06 21:09:10+00:00
5,13.0,-44.0,2021-05-06 21:09:10+00:00
6,-23.0,-45.0,2021-05-06 21:09:10+00:00
7,-19.0,-45.0,2021-05-06 21:09:10+00:00
8,5.0,-44.0,2021-05-06 21:09:10+00:00
9,35.0,-44.0,2021-05-06 21:09:10+00:00
10,62.0,-44.0,2021-05-06 21:09:10+00:00
11,87.0,-44.0,2021-05-06 21:09:10+00:00
12,121.0,-44.0,2021-05-06 21:09:10+00:00
13,-101.0,-44.0,2021-05-06 21:09:10+00:00
14,-51.0,-44.0,2021-05-06 21:09:10+00:00
15,-2.0,-44.0,2021-05-06 21:09:10+00:00
16,54.0,-43.0,2021-05-06 21:09:10+00:00
17,114.0,-43.0,2021-05-06 21:09:10+00:00
18,-117.0,-43.0,2021-05-06 21:09:10+00:00
19,49.0,-43.0,2021-05-06 21:09:10+00:00
20,-94.0,-44.0,2021-05-06 21:09:10+00:00
21,56.0,-44.0,2021-05-06 21:09:10+00:00
22,5.0,-44.0,2021-05-06 21:09:10+00:00
23,-4.0,-45.0,2021-05-06 21:09:10+00:00
24,9.0,33.0,2021-05-06 21:09:10+00:00
0,28.0,-44.0,2021-05-06 21:09:11+00:00
1,49.0,-44.0,2021-05-06 21:09:11+00:00
2,71.0,-44.0,2021-05-06 21:09:11+00:00
3,96.0,-44.0,2021-05-06 21:09:11+00:00
4,125.0,-44.0,2021-05-06 21:09:11+00:00
5,-95.0,-44.0,2021-05-06 21:09:11+00:00
6,-53.0,-44.0,2021-05-06 21:09:11+00:00
7,-3.0,-44.0,2021-05-06 21:09:11+00:00
8,50.0,-43.0,2021-05-06 21:09:11+00:00
9,40.0,-43.0,2021-05-06 21:09:11+00:00
10,-79.0,-44.0,2021-05-06 21:09:11+00:00
11,46.0,-44.0,2021-05-06 21:09:11+00:00
12,-42.0,-45.0,2021-05-06 21:09:11+00:00
13,-80.0,-45.0,2021-05-06 21:09:11+00:00
14,-83.0,-45.0,2021-05-06 21:09:11+00:00
15,-67.0,-45.0,2021-05-06 21:09:11+00:00
16,-45.0,-45.0,2021-05-06 21:09:11+00:00
17,-30.0,-45.0,2021-05-06 21:09:11+00:00
18,-14.0,-45.0,2021-05-06 21:09:11+00:00
19,11.0,-44.0,2021-05-06 21:09:11+00:00
20,43.0,-44.0,2021-05-06 21:09:11+00:00
21,86.0,-44.0,2021-05-06 21:09:11+00:00
22,-125.0,-44.0,2021-05-06 21:09:11+00:00
23,-80.0,-44.0,2021-05-06 21:09:11+00:00
24,-63.0,42.0,2021-05-06 21:09:11+00:00
0,99.0,-44.0,2021-05-06 21:09:12+00:00
1,-45.0,-45.0,2021-05-06 21:09:12+00:00
2,105.0,-45.0,2021-05-06 21:09:12+00:00
3,50.0,-45.0,2021-05-06 21:09:12+00:00
4,46.0,-45.0,2021-05-06 21:09:12+00:00
5,63.0,-45.0,2021-05-06 21:09:12+00:00
6,82.0,-45.0,2021-05-06 21:09:12+00:00
7,105.0,-45.0,2021-05-06 21:09:12+00:00
8,121.0,-45.0,2021-05-06 21:09:12+00:00
9,-113.0,-45.0,2021-05-06 21:09:12+00:00
10,-82.0,-45.0,2021-05-06 21:09:12+00:00
11,-51.0,-45.0,2021-05-06 21:09:12+00:00
12,-12.0,-45.0,2021-05-06 21:09:12+00:00
13,33.0,-44.0,2021-05-06 21:09:12+00:00
14,51.0,-44.0,2021-05-06 21:09:12+00:00
15,-47.0,-45.0,2021-05-06 21:09:12+00:00
16,47.0,-45.0,2021-05-06 21:09:12+00:00
17,-76.0,-46.0,2021-05-06 21:09:12+00:00
18,120.0,-46.0,2021-05-06 21:09:12+00:00
19,106.0,-46.0,2021-05-06 21:09:12+00:00
20,120.0,-46.0,2021-05-06 21:09:12+00:00
21,-119.0,-46.0,2021-05-06 21:09:12+00:00
22,-101.0,-46.0,2021-05-06 21:09:12+00:00
23,-83.0,-46.0,2021-05-06 21:09:12+00:00
24,-61.0,79.0,2021-05-06 21:09:12+00:00
0,-30.0,-46.0,2021-05-06 21:09:13+00:00
1,3.0,-45.0,2021-05-06 21:09:13+00:00
2,44.0,-45.0,2021-05-06 21:09:13+00:00
3,90.0,-45.0,2021-05-06 21:09:13+00:00
4,123.0,-45.0,2021-05-06 21:09:13+00:00
5,30.0,-45.0,2021-05-06 21:09:13+00:00
6,123.0,-46.0,2021-05-06 21:09:13+00:00
7,-11.0,-47.0,2021-05-06 21:09:13+00:00
8,-83.0,-47.0,2021-05-06 21:09:13+00:00
9,-113.0,-47.0,2021-05-06 21:09:13+00:00
10,-111.0,-47.0,2021-05-06 21:09:13+00:00
11,-107.0,-47.0,2021-05-06 21:09:13+00:00
12,-102.0,-47.0,2021-05-06 21:09:13+00:00
13,-91.0,-47.0,2021-05-06 21:09:13+00:00
14,-74.0,-47.0,2021-05-06 21:09:13+00:00
15,-51.0,-47.0,2021-05-06 21:09:13+00:00
16,-13.0,-47.0,2021-05-06 21:09:13+00:00
17,35.0,-46.0,2021-05-06 21:09:13+00:00
18,91.0,-46.0,2021-05-06 21:09:13+00:00
19,117.0,-46.0,2021-05-06 21:09:13+00:00
20,15.0,-46.0,2021-05-06 21:09:13+00:00
21,104.0,-47.0,2021-05-06 21:09:13+00:00
22,-14.0,-48.0,2021-05-06 21:09:13+00:00
23,-72.0,-48.0,2021-05-06 21:09:13+00:00
24,-82.0,24.0,2021-05-06 21:09:13+00:00
0,-62.0,-48.0,2021-05-06 21:09:14+00:00
1,-34.0,-48.0,2021-05-06 21:09:14+00:00
2,-17.0,-48.0,2021-05-06 21:09:14+00:00
3,-3.0,-48.0,2021-05-06 21:09:14+00:00
4,18.0,-47.0,2021-05-06 21:09:14+00:00
5,50.0,-47.0,2021-05-06 21:09:14+00:00
6,96.0,-47.0,2021-05-06 21:09:14+00:00
7,-101.0,-47.0,2021-05-06 21:09:14+00:00
8,-45.0,-47.0,2021-05-06 21:09:14+00:00
9,-82.0,-47.0,2021-05-06 21:09:14+00:00
10,35.0,-47.0,2021-05-06 21:09:14+00:00
11,-92.0,-48.0,2021-05-06 21:09:14+00:00
12,96.0,-48.0,2021-05-06 21:09:14+00:00
13,80.0,-48.0,2021-05-06 21:09:14+00:00
14,104.0,-48.0,2021-05-06 21:09:14+00:00
15,-119.0,-48.0,2021-05-06 21:09:14+00:00
16,-85.0,-48.0,2021-05-06 21:09:14+00:00
17,-60.0,-48.0,2021-05-06 21:09:14+00:00
18,-26.0,-48.0,2021-05-06 21:09:14+00:00
19,15.0,-47.0,2021-05-06 21:09:14+00:00
20,69.0,-47.0,2021-05-06 21:09:14+00:00
21,-128.0,-47.0,2021-05-06 21:09:14+00:00
22,-67.0,-47.0,2021-05-06 21:09:14+00:00
23,-65.0,-47.0,2021-05-06 21:09:14+00:00
24,62.0,72.0,2021-05-06 21:09:14+00:00
0,-88.0,-48.0,2021-05-06 21:09:15+00:00
1,77.0,-48.0,2021-05-06 21:09:15+00:00
2,50.0,-48.0,2021-05-06 21:09:15+00:00
3,69.0,-48.0,2021-05-06 21:09:15+00:00
4,105.0,-48.0,2021-05-06 21:09:15+00:00
5,-117.0,-48.0,2021-05-06 21:09:15+00:00
6,-93.0,-48.0,2021-05-06 21:09:15+00:00
7,-68.0,-48.0,2021-05-06 21:09:15+00:00
8,-30.0,-48.0,2021-05-06 21:09:15+00:00
9,20.0,-47.0,2021-05-06 21:09:15+00:00
10,79.0,-47.0,2021-05-06 21:09:15+00:00
11,-110.0,-47.0,2021-05-06 21:09:15+00:00
12,-42.0,-47.0,2021-05-06 21:09:15+00:00
13,-78.0,-47.0,2021-05-06 21:09:15+00:00
14,24.0,-47.0,2021-05-06 21:09:15+00:00
15,-115.0,-48.0,2021-05-06 21:09:15+00:00
16,67.0,-48.0,2021-05-06 21:09:15+00:00
17,54.0,-48.0,2021-05-06 21:09:15+00:00
18,81.0,-48.0,2021-05-06 21:09:15+00:00
19,120.0,-48.0,2021-05-06 21:09:15+00:00
20,-93.0,-48.0,2021-05-06 21:09:15+00:00
21,-54.0,-48.0,2021-05-06 21:09:15+00:00
22,-42.0,-48.0,2021-05-06 21:09:15+00:00
23,-26.0,-48.0,2021-05-06 21:09:15+00:00
24,-25.0,-64.0,2021-05-06 21:09:15+00:00
0,-75.0,-48.0,2021-05-06 21:09:16+00:00
1,108.0,-48.0,2021-05-06 21:09:16+00:00
2,37.0,-48.0,2021-05-06 21:09:16+00:00
3,106.0,-49.0,2021-05-06 21:09:16+00:00
4,-1.0,-51.0,2021-05-06 21:09:16+00:00
5,59.0,-52.0,2021-05-06 21:09:16+00:00
6,107.0,-54.0,2021-05-06 21:09:16+00:00
7,-5.0,-58.0,2021-05-06 21:09:16+00:00
8,100.0,-59.0,2021-05-06 21:09:16+00:00
9,-18.0,-60.0,2021-05-06 21:09:16+00:00
10,116.0,-60.0,2021-05-06 21:09:16+00:00
11,23.0,-60.0,2021-05-06 21:09:16+00:00
12,-38.0,-61.0,2021-05-06 21:09:16+00:00
13,-11.0,-61.0,2021-05-06 21:09:16+00:00
14,17.0,-60.0,2021-05-06 21:09:16+00:00
15,13.0,-60.0,2021-05-06 21:09:16+00:00
16,22.0,-60.0,2021-05-06 21:09:16+00:00
17,43.0,-60.0,2021-05-06 21:09:16+00:00
18,-122.0,-61.0,2021-05-06 21:09:16+00:00
19,83.0,-62.0,2021-05-06 21:09:16+00:00
20,37.0,-63.0,2021-05-06 21:09:16+00:00
21,26.0,-64.0,2021-05-06 21:09:16+00:00
22,122.0,-65.0,2021-05-06 21:09:16+00:00
23,13.0,-65.0,2021-05-06 21:09:16+00:00
24,-34.0,-112.0,2021-05-06 21:09:16+00:00
0,-81.0,-66.0,2021-05-06 21:09:17+00:00
1,97.0,-66.0,2021-05-06 21:09:17+00:00
2,-29.0,-67.0,2021-05-06 21:09:17+00:00
3,103.0,-67.0,2021-05-06 21:09:17+00:00
4,9.0,-67.0,2021-05-06 21:09:17+00:00
5,-61.0,-68.0,2021-05-06 21:09:17+00:00
6,-106.0,-68.0,2021-05-06 21:09:17+00:00
7,-113.0,-68.0,2021-05-06 21:09:17+00:00
8,86.0,-68.0,2021-05-06 21:09:17+00:00
9,-74.0,-69.0,2021-05-06 21:09:17+00:00
10,10.0,-69.0,2021-05-06 21:09:17+00:00
11,-106.0,-70.0,2021-05-06 21:09:17+00:00
12,89.0,-70.0,2021-05-06 21:09:17+00:00
13,43.0,-70.0,2021-05-06 21:09:17+00:00
14,-22.0,-71.0,2021-05-06 21:09:17+00:00
15,-113.0,-71.0,2021-05-06 21:09:17+00:00
16,34.0,-71.0,2021-05-06 21:09:17+00:00
17,-55.0,-72.0,2021-05-06 21:09:17+00:00
18,-89.0,-72.0,2021-05-06 21:09:17+00:00
19,-86.0,-72.0,2021-05-06 21:09:17+00:00
20,-65.0,-72.0,2021-05-06 21:09:17+00:00
21,-25.0,-72.0,2021-05-06 21:09:17+00:00
22,22.0,-71.0,2021-05-06 21:09:17+00:00
23,62.0,-71.0,2021-05-06 21:09:17+00:00
24,15.0,-38.0,2021-05-06 21:09:17+00:00
0,109.0,-72.0,2021-05-06 21:09:18+00:00
1,-30.0,-73.0,2021-05-06 21:09:18+00:00
2,-92.0,-73.0,2021-05-06 21:09:18+00:00
3,-121.0,-73.0,2021-05-06 21:09:18+00:00
4,-123.0,-73.0,2021-05-06 21:09:18+00:00
5,-98.0,-73.0,2021-05-06 21:09:18+00:00
6,-69.0,-73.0,2021-05-06 21:09:18+00:00
7,-34.0,-73.0,2021-05-06 21:09:18+00:00
8,-4.0,-73.0,2021-05-06 21:09:18+00:00
9,31.0,-72.0,2021-05-06 21:09:18+00:00
10,61.0,-72.0,2021-05-06 21:09:18+00:00
11,105.0,-72.0,2021-05-06 21:09:18+00:00
12,-88.0,-72.0,2021-05-06 21:09:18+00:00
13,-17.0,-72.0,2021-05-06 21:09:18+00:00
14,46.0,-71.0,2021-05-06 21:09:18+00:00
15,27.0,-71.0,2021-05-06 21:09:18+00:00
16,-84.0,-72.0,2021-05-06 21:09:18+00:00
17,80.0,-72.0,2021-05-06 21:09:18+00:00
18,36.0,-72.0,2021-05-06 21:09:18+00:00
19,30.0,-72.0,2021-05-06 21:09:18+00:00
20,87.0,-72.0,2021-05-06 21:09:18+00:00
21,-106.0,-72.0,2021-05-06 21:09:18+00:00
22,-61.0,-72.0,2021-05-06 21:09:18+00:00
23,-64.0,-72.0,2021-05-06 21:09:18+00:00
24,-46.0,-74.0,2021-05-06 21:09:18+00:00
0,-10.0,-72.0,2021-05-06 21:09:19+00:00
1,26.0,-71.0,2021-05-06 21:09:19+00:00
2,73.0,-71.0,2021-05-06 21:09:19+00:00
3,-124.0,-71.0,2021-05-06 21:09:19+00:00
4,-39.0,-71.0,2021-05-06 21:09:19+00:00
5,36.0,-70.0,2021-05-06 21:09:19+00:00
6,-4.0,-71.0,2021-05-06 21:09:19+00:00
7,-119.0,-71.0,2021-05-06 21:09:19+00:00
8,29.0,-71.0,2021-05-06 21:09:19+00:00
9,-7.0,-72.0,2021-05-06 21:09:19+00:00
10,20.0,-71.0,2021-05-06 21:09:19+00:00
11,67.0,-71.0,2021-05-06 21:09:19+00:00
12,105.0,-71.0,2021-05-06 21:09:19+00:00
13,122.0,-71.0,2021-05-06 21:09:19+00:00
14,-118.0,-71.0,2021-05-06 21:09:19+00:00
15,-54.0,-71.0,2021-05-06 21:09:19+00:00
16,41.0,-70.0,2021-05-06 21:09:19+00:00
17,-64.0,-70.0,2021-05-06 21:09:19+00:00
18,-59.0,-69.0,2021-05-06 21:09:19+00:00
19,14.0,-67.0,2021-05-06 21:09:19+00:00
20,-107.0,-66.0,2021-05-06 21:09:19+00:00
21,-125.0,-65.0,2021-05-06 21:09:19+00:00
22,-86.0,-65.0,2021-05-06 21:09:19+00:00
23,-60.0,-65.0,2021-05-06 21:09:19+00:00
24,-114.0,110.0,2021-05-06 21:09:19+00:00
0,21.0,-65.0,2021-05-06 21:09:20+00:00
1,15.0,-65.0,2021-05-06 21:09:20+00:00
2,100.0,-65.0,2021-05-06 21:09:20+00:00
3,-34.0,-65.0,2021-05-06 21:09:20+00:00
4,63.0,-64.0,2021-05-06 21:09:20+00:00
5,88.0,-64.0,2021-05-06 21:09:20+00:00
6,-36.0,-65.0,2021-05-06 21:09:20+00:00
7,123.0,-65.0,2021-05-06 21:09:20+00:00
8,-120.0,-65.0,2021-05-06 21:09:20+00:00
9,-53.0,-65.0,2021-05-06 21:09:20+00:00
10,16.0,-64.0,2021-05-06 21:09:20+00:00
11,72.0,-64.0,2021-05-06 21:09:20+00:00
12,13.0,-64.0,2021-05-06 21:09:20+00:00
13,-120.0,-65.0,2021-05-06 21:09:20+00:00
14,71.0,-65.0,2021-05-06 21:09:20+00:00
15,-76.0,-65.0,2021-05-06 21:09:20+00:00
16,117.0,-64.0,2021-05-06 21:09:20+00:00
17,-5.0,-64.0,2021-05-06 21:09:20+00:00
18,-66.0,-64.0,2021-05-06 21:09:20+00:00
19,11.0,-64.0,2021-05-06 21:09:20+00:00
20,37.0,-64.0,2021-05-06 21:09:20+00:00
21,117.0,-64.0,2021-05-06 21:09:20+00:00
22,-96.0,-64.0,2021-05-06 21:09:20+00:00
23,125.0,-64.0,2021-05-06 21:09:20+00:00
24,69.0,-34.0,2021-05-06 21:09:20+00:00
0,111.0,-64.0,2021-05-06 21:09:21+00:00
1,-58.0,-64.0,2021-05-06 21:09:21+00:00
2,12.0,-63.0,2021-05-06 21:09:21+00:00
3,-9.0,-64.0,2021-05-06 21:09:21+00:00
4,-55.0,-64.0,2021-05-06 21:09:21+00:00
5,3.0,-63.0,2021-05-06 21:09:21+00:00
6,-60.0,-63.0,2021-05-06 21:09:21+00:00
7,-108.0,-62.0,2021-05-06 21:09:21+00:00
8,-122.0,-61.0,2021-05-06 21:09:21+00:00
9,123.0,-60.0,2021-05-06 21:09:21+00:00
10,74.0,-59.0,2021-05-06 21:09:21+00:00
11,11.0,-58.0,2021-05-06 21:09:21+00:00
12,-73.0,-58.0,2021-05-06 21:09:21+00:00
13,96.0,-57.0,2021-05-06 21:09:21+00:00
14,5.0,-56.0,2021-05-06 21:09:21+00:00
15,-86.0,-56.0,2021-05-06 21:09:21+00:00
16,74.0,-55.0,2021-05-06 21:09:21+00:00
17,-46.0,-55.0,2021-05-06 21:09:21+00:00
18,25.0,-54.0,2021-05-06 21:09:21+00:00
19,-60.0,-55.0,2021-05-06 21:09:21+00:00
20,21.0,-55.0,2021-05-06 21:09:21+00:00
21,95.0,-56.0,2021-05-06 21:09:21+00:00
22,-105.0,-57.0,2021-05-06 21:09:21+00:00
23,86.0,-58.0,2021-05-06 21:09:21+00:00
24,-42.0,68.0,2021-05-06 21:09:21+00:00
0,-111.0,-59.0,2021-05-06 21:09:22+00:00
1,74.0,-59.0,2021-05-06 21:09:22+00:00
2,19.0,-59.0,2021-05-06 21:09:22+00:00
3,-18.0,-60.0,2021-05-06 21:09:22+00:00
4,-42.0,-60.0,2021-05-06 21:09:22+00:00
5,-59.0,-60.0,2021-05-06 21:09:22+00:00
6,-58.0,-60.0,2021-05-06 21:09:22+00:00
7,-44.0,-60.0,2021-05-06 21:09:22+00:00
8,-80.0,-60.0,2021-05-06 21:09:22+00:00
9,28.0,-60.0,2021-05-06 21:09:22+00:00
10,72.0,-61.0,2021-05-06 21:09:22+00:00
11,-95.0,-62.0,2021-05-06 21:09:22+00:00
12,103.0,-62.0,2021-05-06 21:09:22+00:00
13,47.0,-62.0,2021-05-06 21:09:22+00:00
14,-9.0,-63.0,2021-05-06 21:09:22+00:00
15,-40.0,-63.0,2021-05-06 21:09:22+00:00
16,-126.0,-63.0,2021-05-06 21:09:22+00:00
17,48.0,-63.0,2021-05-06 21:09:22+00:00
18,-10.0,-64.0,2021-05-06 21:09:22+00:00
19,11.0,-63.0,2021-05-06 21:09:22+00:00
20,80.0,-63.0,2021-05-06 21:09:22+00:00
21,-92.0,-63.0,2021-05-06 21:09:22+00:00
22,-63.0,-62.0,2021-05-06 21:09:22+00:00
23,51.0,-60.0,2021-05-06 21:09:22+00:00
24,110.0,-102.0,2021-05-06 21:09:22+00:00
0,84.0,-58.0,2021-05-06 21:09:23+00:00
1,-35.0,-58.0,2021-05-06 21:09:23+00:00
2,-108.0,-58.0,2021-05-06 21:09:23+00:00
3,-49.0,-59.0,2021-05-06 21:09:23+00:00
4,-97.0,-60.0,2021-05-06 21:09:23+00:00
5,-86.0,-61.0,2021-05-06 21:09:23+00:00
6,39.0,-61.0,2021-05-06 21:09:23+00:00
7,-39.0,-62.0,2021-05-06 21:09:23+00:00
8,-100.0,-62.0,2021-05-06 21:09:23+00:00
9,119.0,-62.0,2021-05-06 21:09:23+00:00
10,91.0,-62.0,2021-05-06 21:09:23+00:00
11,54.0,-62.0,2021-05-06 21:09:23+00:00
12,11.0,-62.0,2021-05-06 21:09:23+00:00
13,0.0,-62.0,2021-05-06 21:09:23+00:00
14,-33.0,-63.0,2021-05-06 21:09:23+00:00
15,75.0,-63.0,2021-05-06 21:09:23+00:00
16,92.0,-64.0,2021-05-06 21:09:23+00:00
17,120.0,-65.0,2021-05-06 21:09:23+00:00
18,-53.0,-66.0,2021-05-06 21:09:23+00:00
19,95.0,-66.0,2021-05-06 21:09:23+00:00
20,1.0,-66.0,2021-05-06 21:09:23+00:00
21,-90.0,-67.0,2021-05-06 21:09:23+00:00
22,98.0,-67.0,2021-05-06 21:09:23+00:00
23,54.0,-67.0,2021-05-06 21:09:23+00:00
24,-100.0,-43.0,2021-05-06 21:09:23+00:00
0,42.0,-66.0,2021-05-06 21:09:24+00:00
1,-69.0,-66.0,2021-05-06 21:09:24+00:00
2,104.0,-65.0,2021-05-06 21:09:24+00:00
3,-15.0,-65.0,2021-05-06 21:09:24+00:00
4,81.0,-64.0,2021-05-06 21:09:24+00:00
5,28.0,-64.0,2021-05-06 21:09:24+00:00
6,70.0,-65.0,2021-05-06 21:09:24+00:00
7,83.0,-66.0,2021-05-06 21:09:24+00:00
8,112.0,-67.0,2021-05-06 21:09:24+00:00
9,92.0,-68.0,2021-05-06 21:09:24+00:00
10,-89.0,-69.0,2021-05-06 21:09:24+00:00
11,76.0,-69.0,2021-05-06 21:09:24+00:00
12,20.0,-69.0,2021-05-06 21:09:24+00:00
13,-25.0,-70.0,2021-05-06 21:09:24+00:00
14,-53.0,-70.0,2021-05-06 21:09:24+00:00
15,-78.0,-70.0,2021-05-06 21:09:24+00:00
16,-89.0,-70.0,2021-05-06 21:09:24+00:00
17,-114.0,-70.0,2021-05-06 21:09:24+00:00
18,121.0,-70.0,2021-05-06 21:09:24+00:00
19,-115.0,-70.0,2021-05-06 21:09:24+00:00
20,-80.0,-70.0,2021-05-06 21:09:24+00:00
21,-100.0,-70.0,2021-05-06 21:09:24+00:00
22,-10.0,-71.0,2021-05-06 21:09:24+00:00
23,24.0,-71.0,2021-05-06 21:09:24+00:00
24,107.0,61.0,2021-05-06 21:09:24+00:00
0,-15.0,-73.0,2021-05-06 21:09:25+00:00
1,-95.0,-73.0,2021-05-06 21:09:25+00:00
2,109.0,-73.0,2021-05-06 21:09:25+00:00
3,60.0,-73.0,2021-05-06 21:09:25+00:00
4,34.0,-73.0,2021-05-06 21:09:25+00:00
5,14.0,-73.0,2021-05-06 21:09:25+00:00
6,-8.0,-74.0,2021-05-06 21:09:25+00:00
7,-5.0,-74.0,2021-05-06 21:09:25+00:00
8,35.0,-73.0,2021-05-06 21:09:25+00:00
9,52.0,-73.0,2021-05-06 21:09:25+00:00
10,13.0,-73.0,2021-05-06 21:09:25+00:00
11,49.0,-73.0,2021-05-06 21:09:25+00:00
12,-78.0,-73.0,2021-05-06 21:09:25+00:00
13,78.0,-71.0,2021-05-06 21:09:25+00:00
14,58.0,-69.0,2021-05-06 21:09:25+00:00
15,-51.0,-68.0,2021-05-06 21:09:25+00:00
16,46.0,-67.0,2021-05-06 21:09:25+00:00
17,104.0,-67.0,2021-05-06 21:09:25+00:00
18,-92.0,-67.0,2021-05-06 21:09:25+00:00
19,-104.0,-67.0,2021-05-06 21:09:25+00:00
20,-43.0,-68.0,2021-05-06 21:09:25+00:00
21,56.0,-68.0,2021-05-06 21:09:25+00:00
22,-58.0,-69.0,2021-05-06 21:09:25+00:00
23,117.0,-69.0,2021-05-06 21:09:25+00:00
24,102.0,-6.0,2021-05-06 21:09:25+00:00
0,104.0,-69.0,2021-05-06 21:09:26+00:00
1,102.0,-69.0,2021-05-06 21:09:26+00:00
2,113.0,-69.0,2021-05-06 21:09:26+00:00
3,-115.0,-69.0,2021-05-06 21:09:26+00:00
4,-89.0,-69.0,2021-05-06 21:09:26+00:00
5,-71.0,-69.0,2021-05-06 21:09:26+00:00
6,79.0,-69.0,2021-05-06 21:09:26+00:00
7,-118.0,-70.0,2021-05-06 21:09:26+00:00
8,-50.0,-71.0,2021-05-06 21:09:26+00:00
9,74.0,-71.0,2021-05-06 21:09:26+00:00
10,-5.0,-72.0,2021-05-06 21:09:26+00:00
11,-46.0,-72.0,2021-05-06 21:09:26+00:00
12,-73.0,-72.0,2021-05-06 21:09:26+00:00
13,-79.0,-72.0,2021-05-06 21:09:26+00:00
14,-79.0,-72.0,2021-05-06 21:09:26+00:00
15,-59.0,-72.0,2021-05-06 21:09:26+00:00
16,-30.0,-72.0,2021-05-06 21:09:26+00:00
17,25.0,-71.0,2021-05-06 21:09:26+00:00
18,75.0,-71.0,2021-05-06 21:09:26+00:00
19,-111.0,-71.0,2021-05-06 21:09:26+00:00
20,-67.0,-71.0,2021-05-06 21:09:26+00:00
21,-7.0,-71.0,2021-05-06 21:09:26+00:00
22,38.0,-70.0,2021-05-06 21:09:26+00:00
23,69.0,-70.0,2021-05-06 21:09:26+00:00
24,-64.0,7.0,2021-05-06 21:09:26+00:00
0,-42.0,-68.0,2021-05-06 21:09:27+00:00
1,15.0,-65.0,2021-05-06 21:09:27+00:00
2,-18.0,-64.0,2021-05-06 21:09:27+00:00
3,-39.0,-63.0,2021-05-06 21:09:27+00:00
4,56.0,-62.0,2021-05-06 21:09:27+00:00
5,-56.0,-64.0,2021-05-06 21:09:27+00:00
6,-29.0,-65.0,2021-05-06 21:09:27+00:00
7,-59.0,-65.0,2021-05-06 21:09:27+00:00
8,-14.0,-65.0,2021-05-06 21:09:27+00:00
9,111.0,-64.0,2021-05-06 21:09:27+00:00
10,-109.0,-64.0,2021-05-06 21:09:27+00:00
11,111.0,-64.0,2021-05-06 21:09:27+00:00
12,104.0,-64.0,2021-05-06 21:09:27+00:00
13,108.0,-64.0,2021-05-06 21:09:27+00:00
14,55.0,-64.0,2021-05-06 21:09:27+00:00
15,-90.0,-65.0,2021-05-06 21:09:27+00:00
16,20.0,-65.0,2021-05-06 21:09:27+00:00
17,-108.0,-66.0,2021-05-06 21:09:27+00:00
18,44.0,-66.0,2021-05-06 21:09:27+00:00
19,-13.0,-67.0,2021-05-06 21:09:27+00:00
20,-33.0,-67.0,2021-05-06 21:09:27+00:00
21,-32.0,-67.0,2021-05-06 21:09:27+00:00
22,-38.0,-67.0,2021-05-06 21:09:27+00:00
23,-38.0,-67.0,2021-05-06 21:09:27+00:00
24,-20.0,-103.0,2021-05-06 21:09:27+00:00
0,9.0,-66.0,2021-05-06 21:09:29+00:00
1,40.0,-66.0,2021-05-06 21:09:29+00:00
2,75.0,-66.0,2021-05-06 21:09:29+00:00
3,126.0,-66.0,2021-05-06 21:09:29+00:00
4,-75.0,-66.0,2021-05-06 21:09:29+00:00
5,-24.0,-66.0,2021-05-06 21:09:29+00:00
6,-34.0,-66.0,2021-05-06 21:09:29+00:00
7,-127.0,-66.0,2021-05-06 21:09:29+00:00
8,11.0,-66.0,2021-05-06 21:09:29+00:00
9,-82.0,-67.0,2021-05-06 21:09:29+00:00
10,92.0,-67.0,2021-05-06 21:09:29+00:00
11,22.0,-67.0,2021-05-06 21:09:29+00:00
12,-10.0,-68.0,2021-05-06 21:09:29+00:00
13,-14.0,-68.0,2021-05-06 21:09:29+00:00
14,-9.0,-68.0,2021-05-06 21:09:29+00:00
15,1.0,-67.0,2021-05-06 21:09:29+00:00
16,30.0,-67.0,2021-05-06 21:09:29+00:00
17,74.0,-67.0,2021-05-06 21:09:29+00:00
18,117.0,-67.0,2021-05-06 21:09:29+00:00
19,-99.0,-67.0,2021-05-06 21:09:29+00:00
20,-56.0,-67.0,2021-05-06 21:09:29+00:00
21,0.0,-66.0,2021-05-06 21:09:29+00:00
22,49.0,-66.0,2021-05-06 21:09:29+00:00
23,3.0,-66.0,2021-05-06 21:09:29+00:00
24,-127.0,-34.0,2021-05-06 21:09:29+00:00
0,14.0,-67.0,2021-05-06 21:09:29+00:00
1,-56.0,-68.0,2021-05-06 21:09:29+00:00
2,-100.0,-68.0,2021-05-06 21:09:29+00:00
3,-123.0,-68.0,2021-05-06 21:09:29+00:00
4,123.0,-68.0,2021-05-06 21:09:29+00:00
5,115.0,-68.0,2021-05-06 21:09:29+00:00
6,104.0,-68.0,2021-05-06 21:09:29+00:00
7,116.0,-68.0,2021-05-06 21:09:29+00:00
8,-109.0,-68.0,2021-05-06 21:09:29+00:00
9,-21.0,-68.0,2021-05-06 21:09:29+00:00
10,121.0,-67.0,2021-05-06 21:09:29+00:00
11,-21.0,-66.0,2021-05-06 21:09:29+00:00
12,-115.0,-64.0,2021-05-06 21:09:29+00:00
13,26.0,-62.0,2021-05-06 21:09:29+00:00
14,-44.0,-62.0,2021-05-06 21:09:29+00:00
15,5.0,-61.0,2021-05-06 21:09:29+00:00
16,-98.0,-62.0,2021-05-06 21:09:29+00:00
17,-118.0,-64.0,2021-05-06 21:09:29+00:00
18,-77.0,-65.0,2021-05-06 21:09:29+00:00
19,82.0,-65.0,2021-05-06 21:09:29+00:00
20,30.0,-65.0,2021-05-06 21:09:29+00:00
21,-13.0,-66.0,2021-05-06 21:09:29+00:00
22,-79.0,-66.0,2021-05-06 21:09:29+00:00
23,122.0,-66.0,2021-05-06 21:09:29+00:00
24,95.0,-28.0,2021-05-06 21:09:29+00:00
0,92.0,-66.0,2021-05-06 21:09:30+00:00
1,100.0,-66.0,2021-05-06 21:09:30+00:00
2,113.0,-66.0,2021-05-06 21:09:30+00:00
3,-120.0,-66.0,2021-05-06 21:09:30+00:00
4,-116.0,-66.0,2021-05-06 21:09:30+00:00
5,42.0,-66.0,2021-05-06 21:09:30+00:00
6,98.0,-67.0,2021-05-06 21:09:30+00:00
7,-116.0,-68.0,2021-05-06 21:09:30+00:00
8,-23.0,-69.0,2021-05-06 21:09:30+00:00
9,69.0,-69.0,2021-05-06 21:09:30+00:00
10,-41.0,-70.0,2021-05-06 21:09:30+00:00
11,-125.0,-70.0,2021-05-06 21:09:30+00:00
12,52.0,-70.0,2021-05-06 21:09:30+00:00
13,-17.0,-71.0,2021-05-06 21:09:30+00:00
14,-39.0,-71.0,2021-05-06 21:09:30+00:00
15,24.0,-70.0,2021-05-06 21:09:30+00:00
16,57.0,-70.0,2021-05-06 21:09:30+00:00
17,57.0,-70.0,2021-05-06 21:09:30+00:00
18,30.0,-70.0,2021-05-06 21:09:30+00:00
19,-26.0,-71.0,2021-05-06 21:09:30+00:00
20,89.0,-71.0,2021-05-06 21:09:30+00:00
21,76.0,-72.0,2021-05-06 21:09:30+00:00
22,19.0,-73.0,2021-05-06 21:09:30+00:00
23,91.0,-74.0,2021-05-06 21:09:30+00:00
24,9.0,50.0,2021-05-06 21:09:30+00:00
0,-12.0,-75.0,2021-05-06 21:09:31+00:00
1,31.0,-74.0,2021-05-06 21:09:31+00:00
2,49.0,-74.0,2021-05-06 21:09:31+00:00
3,90.0,-74.0,2021-05-06 21:09:31+00:00
4,-107.0,-74.0,2021-05-06 21:09:31+00:00
5,-6.0,-74.0,2021-05-06 21:09:31+00:00
6,-43.0,-73.0,2021-05-06 21:09:31+00:00
7,-125.0,-72.0,2021-05-06 21:09:31+00:00
8,-64.0,-72.0,2021-05-06 21:09:31+00:00
9,-25.0,-72.0,2021-05-06 21:09:31+00:00
10,-35.0,-72.0,2021-05-06 21:09:31+00:00
11,-84.0,-72.0,2021-05-06 21:09:31+00:00
12,-86.0,-72.0,2021-05-06 21:09:31+00:00
13,-26.0,-73.0,2021-05-06 21:09:31+00:00
14,62.0,-73.0,2021-05-06 21:09:31+00:00
15,-12.0,-74.0,2021-05-06 21:09:31+00:00
16,-13.0,-74.0,2021-05-06 21:09:31+00:00
17,-3.0,-74.0,2021-05-06 21:09:31+00:00
18,81.0,-73.0,2021-05-06 21:09:31+00:00
19,10.0,-72.0,2021-05-06 21:09:31+00:00
20,-67.0,-72.0,2021-05-06 21:09:31+00:00
21,28.0,-71.0,2021-05-06 21:09:31+00:00
22,93.0,-71.0,2021-05-06 21:09:31+00:00
23,-47.0,-71.0,2021-05-06 21:09:31+00:00
24,-125.0,-99.0,2021-05-06 21:09:31+00:00
0,52.0,-69.0,2021-05-06 21:09:32+00:00
1,-84.0,-69.0,2021-05-06 21:09:32+00:00
2,-70.0,-69.0,2021-05-06 21:09:32+00:00
3,-111.0,-69.0,2021-05-06 21:09:32+00:00
4,-118.0,-69.0,2021-05-06 21:09:32+00:00
5,-90.0,-69.0,2021-05-06 21:09:32+00:00
6,-38.0,-69.0,2021-05-06 21:09:32+00:00
7,54.0,-68.0,2021-05-06 21:09:32+00:00
8,-103.0,-68.0,2021-05-06 21:09:32+00:00
9,-40.0,-68.0,2021-05-06 21:09:32+00:00
10,-12.0,-68.0,2021-05-06 21:09:32+00:00
11,-2.0,-68.0,2021-05-06 21:09:32+00:00
12,26.0,-67.0,2021-05-06 21:09:32+00:00
13,101.0,-67.0,2021-05-06 21:09:32+00:00
14,-63.0,-67.0,2021-05-06 21:09:32+00:00
15,26.0,-66.0,2021-05-06 21:09:32+00:00
16,53.0,-66.0,2021-05-06 21:09:32+00:00
17,-11.0,-67.0,2021-05-06 21:09:32+00:00
18,-83.0,-67.0,2021-05-06 21:09:32+00:00
19,-112.0,-67.0,2021-05-06 21:09:32+00:00
20,-76.0,-67.0,2021-05-06 21:09:32+00:00
21,-3.0,-67.0,2021-05-06 21:09:32+00:00
22,96.0,-66.0,2021-05-06 21:09:32+00:00
23,-61.0,-66.0,2021-05-06 21:09:32+00:00
24,36.0,85.0,2021-05-06 21:09:32+00:00
0,-126.0,-65.0,2021-05-06 21:09:33+00:00
1,-42.0,-65.0,2021-05-06 21:09:33+00:00
2,-34.0,-65.0,2021-05-06 21:09:33+00:00
3,-39.0,-65.0,2021-05-06 21:09:33+00:00
4,-20.0,-65.0,2021-05-06 21:09:33+00:00
5,41.0,-64.0,2021-05-06 21:09:33+00:00
6,123.0,-64.0,2021-05-06 21:09:33+00:00
7,120.0,-64.0,2021-05-06 21:09:33+00:00
8,72.0,-64.0,2021-05-06 21:09:33+00:00
9,30.0,-64.0,2021-05-06 21:09:33+00:00
10,19.0,-64.0,2021-05-06 21:09:33+00:00
11,54.0,-64.0,2021-05-06 21:09:33+00:00
12,123.0,-64.0,2021-05-06 21:09:33+00:00
13,-60.0,-64.0,2021-05-06 21:09:33+00:00
14,11.0,-63.0,2021-05-06 21:09:33+00:00
15,90.0,-63.0,2021-05-06 21:09:33+00:00
16,-83.0,-63.0,2021-05-06 21:09:33+00:00
17,3.0,-62.0,2021-05-06 21:09:33+00:00
18,95.0,-62.0,2021-05-06 21:09:33+00:00
19,-64.0,-62.0,2021-05-06 21:09:33+00:00
20,36.0,-61.0,2021-05-06 21:09:33+00:00
21,-123.0,-61.0,2021-05-06 21:09:33+00:00
22,-91.0,-61.0,2021-05-06 21:09:33+00:00
23,96.0,-61.0,2021-05-06 21:09:33+00:00
24,21.0,49.0,2021-05-06 21:09:33+00:00
0,-21.0,-62.0,2021-05-06 21:09:35+00:00
1,-25.0,-62.0,2021-05-06 21:09:35+00:00
2,-4.0,-62.0,2021-05-06 21:09:35+00:00
3,29.0,-61.0,2021-05-06 21:09:35+00:00
4,74.0,-61.0,2021-05-06 21:09:35+00:00
5,115.0,-61.0,2021-05-06 21:09:35+00:00
6,-88.0,-61.0,2021-05-06 21:09:35+00:00
7,-30.0,-61.0,2021-05-06 21:09:35+00:00
8,37.0,-60.0,2021-05-06 21:09:35+00:00
9,110.0,-60.0,2021-05-06 21:09:35+00:00
10,-64.0,-60.0,2021-05-06 21:09:35+00:00
11,24.0,-59.0,2021-05-06 21:09:35+00:00
12,52.0,-59.0,2021-05-06 21:09:35+00:00
13,-28.0,-60.0,2021-05-06 21:09:35+00:00
14,-126.0,-60.0,2021-05-06 21:09:35+00:00
15,73.0,-60.0,2021-05-06 21:09:35+00:00
16,58.0,-60.0,2021-05-06 21:09:35+00:00
17,71.0,-60.0,2021-05-06 21:09:35+00:00
18,105.0,-60.0,2021-05-06 21:09:35+00:00
19,-113.0,-60.0,2021-05-06 21:09:35+00:00
20,-88.0,-60.0,2021-05-06 21:09:35+00:00
21,-70.0,-60.0,2021-05-06 21:09:35+00:00
22,-37.0,-60.0,2021-05-06 21:09:35+00:00
23,10.0,-59.0,2021-05-06 21:09:35+00:00
24,70.0,3.0,2021-05-06 21:09:35+00:00
0,-121.0,-59.0,2021-05-06 21:09:36+00:00
1,-53.0,-59.0,2021-05-06 21:09:36+00:00
2,20.0,-58.0,2021-05-06 21:09:36+00:00
3,22.0,-58.0,2021-05-06 21:09:36+00:00
4,-106.0,-59.0,2021-05-06 21:09:36+00:00
5,4.0,-59.0,2021-05-06 21:09:36+00:00
6,-106.0,-60.0,2021-05-06 21:09:36+00:00
7,96.0,-60.0,2021-05-06 21:09:36+00:00
8,79.0,-60.0,2021-05-06 21:09:36+00:00
9,94.0,-60.0,2021-05-06 21:09:36+00:00
10,120.0,-60.0,2021-05-06 21:09:36+00:00
11,-106.0,-60.0,2021-05-06 21:09:36+00:00
12,-75.0,-60.0,2021-05-06 21:09:36+00:00
13,-26.0,-60.0,2021-05-06 21:09:36+00:00
14,29.0,-59.0,2021-05-06 21:09:36+00:00
15,84.0,-59.0,2021-05-06 21:09:36+00:00
16,-109.0,-59.0,2021-05-06 21:09:36+00:00
17,-39.0,-59.0,2021-05-06 21:09:36+00:00
18,44.0,-58.0,2021-05-06 21:09:36+00:00
19,94.0,-58.0,2021-05-06 21:09:36+00:00
20,20.0,-58.0,2021-05-06 21:09:36+00:00
21,-110.0,-59.0,2021-05-06 21:09:36+00:00
22,29.0,-59.0,2021-05-06 21:09:36+00:00
23,-41.0,-60.0,2021-05-06 21:09:36+00:00
24,-89.0,-93.0,2021-05-06 21:09:36+00:00
0,115.0,-60.0,2021-05-06 21:09:36+00:00
1,81.0,-60.0,2021-05-06 21:09:36+00:00
2,107.0,-60.0,2021-05-06 21:09:36+00:00
3,-93.0,-60.0,2021-05-06 21:09:36+00:00
4,-71.0,-60.0,2021-05-06 21:09:36+00:00
5,124.0,-60.0,2021-05-06 21:09:36+00:00
6,118.0,-61.0,2021-05-06 21:09:36+00:00
7,-23.0,-63.0,2021-05-06 21:09:36+00:00
8,-44.0,-63.0,2021-05-06 21:09:36+00:00
9,117.0,-63.0,2021-05-06 21:09:36+00:00
10,43.0,-63.0,2021-05-06 21:09:36+00:00
11,26.0,-63.0,2021-05-06 21:09:36+00:00
12,78.0,-63.0,2021-05-06 21:09:36+00:00
13,-9.0,-63.0,2021-05-06 21:09:36+00:00
14,-83.0,-62.0,2021-05-06 21:09:36+00:00
15,-106.0,-61.0,2021-05-06 21:09:36+00:00
16,117.0,-60.0,2021-05-06 21:09:36+00:00
17,26.0,-59.0,2021-05-06 21:09:36+00:00
18,-83.0,-59.0,2021-05-06 21:09:36+00:00
19,16.0,-58.0,2021-05-06 21:09:36+00:00
20,86.0,-58.0,2021-05-06 21:09:36+00:00
21,-39.0,-58.0,2021-05-06 21:09:36+00:00
22,-92.0,-57.0,2021-05-06 21:09:36+00:00
23,106.0,-56.0,2021-05-06 21:09:36+00:00
24,65.0,-63.0,2021-05-06 21:09:36+00:00
0,-6.0,-55.0,2021-05-06 21:09:38+00:00
1,117.0,-54.0,2021-05-06 21:09:38+00:00
2,-101.0,-54.0,2021-05-06 21:09:38+00:00
3,-91.0,-54.0,2021-05-06 21:09:38+00:00
4,-18.0,-54.0,2021-05-06 21:09:38+00:00
5,70.0,-53.0,2021-05-06 21:09:38+00:00
6,-95.0,-53.0,2021-05-06 21:09:38+00:00
7,33.0,-52.0,2021-05-06 21:09:38+00:00
8,-94.0,-52.0,2021-05-06 21:09:38+00:00
9,19.0,-51.0,2021-05-06 21:09:38+00:00
10,-113.0,-51.0,2021-05-06 21:09:38+00:00
11,34.0,-50.0,2021-05-06 21:09:38+00:00
12,-76.0,-50.0,2021-05-06 21:09:38+00:00
13,80.0,-49.0,2021-05-06 21:09:38+00:00
14,-28.0,-49.0,2021-05-06 21:09:38+00:00
15,119.0,-48.0,2021-05-06 21:09:38+00:00
16,21.0,-47.0,2021-05-06 21:09:38+00:00
17,-113.0,-47.0,2021-05-06 21:09:38+00:00
18,-42.0,-47.0,2021-05-06 21:09:38+00:00
19,-13.0,-47.0,2021-05-06 21:09:38+00:00
20,70.0,-46.0,2021-05-06 21:09:38+00:00
21,98.0,-45.0,2021-05-06 21:09:38+00:00
22,-53.0,-44.0,2021-05-06 21:09:38+00:00
23,0.0,-42.0,2021-05-06 21:09:38+00:00
24,107.0,48.0,2021-05-06 21:09:38+00:00
0,-68.0,-40.0,2021-05-06 21:09:38+00:00
1,-41.0,-39.0,2021-05-06 21:09:38+00:00
2,-104.0,-38.0,2021-05-06 21:09:38+00:00
3,110.0,-37.0,2021-05-06 21:09:38+00:00
4,97.0,-36.0,2021-05-06 21:09:38+00:00
5,-33.0,-36.0,2021-05-06 21:09:38+00:00
6,32.0,-35.0,2021-05-06 21:09:38+00:00
7,70.0,-35.0,2021-05-06 21:09:38+00:00
8,-35.0,-35.0,2021-05-06 21:09:38+00:00
9,98.0,-34.0,2021-05-06 21:09:38+00:00
10,72.0,-34.0,2021-05-06 21:09:38+00:00
11,-46.0,-35.0,2021-05-06 21:09:38+00:00
12,-92.0,-35.0,2021-05-06 21:09:38+00:00
13,-89.0,-35.0,2021-05-06 21:09:38+00:00
14,-67.0,-35.0,2021-05-06 21:09:38+00:00
15,-48.0,-35.0,2021-05-06 21:09:38+00:00
16,-25.0,-35.0,2021-05-06 21:09:38+00:00
17,-1.0,-35.0,2021-05-06 21:09:38+00:00
18,12.0,-34.0,2021-05-06 21:09:38+00:00
19,26.0,-34.0,2021-05-06 21:09:38+00:00
20,66.0,-34.0,2021-05-06 21:09:38+00:00
21,110.0,-34.0,2021-05-06 21:09:38+00:00
22,-108.0,-34.0,2021-05-06 21:09:38+00:00
23,-51.0,-34.0,2021-05-06 21:09:38+00:00
24,6.0,104.0,2021-05-06 21:09:38+00:00
0,12.0,-33.0,2021-05-06 21:09:39+00:00
1,-45.0,-34.0,2021-05-06 21:09:39+00:00
2,-99.0,-34.0,2021-05-06 21:09:39+00:00
3,-100.0,-34.0,2021-05-06 21:09:39+00:00
4,-48.0,-34.0,2021-05-06 21:09:39+00:00
5,12.0,-33.0,2021-05-06 21:09:39+00:00
6,99.0,-33.0,2021-05-06 21:09:39+00:00
7,-33.0,-33.0,2021-05-06 21:09:39+00:00
8,109.0,-32.0,2021-05-06 21:09:39+00:00
9,23.0,-31.0,2021-05-06 21:09:39+00:00
10,-46.0,-31.0,2021-05-06 21:09:39+00:00
11,93.0,-30.0,2021-05-06 21:09:39+00:00
12,-37.0,-30.0,2021-05-06 21:09:39+00:00
13,81.0,-29.0,2021-05-06 21:09:39+00:00
14,-64.0,-29.0,2021-05-06 21:09:39+00:00
15,65.0,-28.0,2021-05-06 21:09:39+00:00
16,-92.0,-28.0,2021-05-06 21:09:39+00:00
17,-59.0,-28.0,2021-05-06 21:09:39+00:00
18,-112.0,-28.0,2021-05-06 21:09:39+00:00
19,116.0,-28.0,2021-05-06 21:09:39+00:00
20,-122.0,-28.0,2021-05-06 21:09:39+00:00
21,-67.0,-28.0,2021-05-06 21:09:39+00:00
22,8.0,-27.0,2021-05-06 21:09:39+00:00
23,87.0,-27.0,2021-05-06 21:09:39+00:00
24,-103.0,9.0,2021-05-06 21:09:39+00:00
0,-47.0,-27.0,2021-05-06 21:09:41+00:00
1,13.0,-26.0,2021-05-06 21:09:41+00:00
2,76.0,-26.0,2021-05-06 21:09:41+00:00
3,-127.0,-26.0,2021-05-06 21:09:41+00:00
4,-74.0,-26.0,2021-05-06 21:09:41+00:00
5,-26.0,-26.0,2021-05-06 21:09:41+00:00
6,34.0,-25.0,2021-05-06 21:09:41+00:00
7,57.0,-25.0,2021-05-06 21:09:41+00:00
8,7.0,-25.0,2021-05-06 21:09:41+00:00
9,-100.0,-26.0,2021-05-06 21:09:41+00:00
10,107.0,-26.0,2021-05-06 21:09:41+00:00
11,92.0,-26.0,2021-05-06 21:09:41+00:00
12,106.0,-26.0,2021-05-06 21:09:41+00:00
13,-109.0,-26.0,2021-05-06 21:09:41+00:00
14,-50.0,-26.0,2021-05-06 21:09:41+00:00
15,7.0,-25.0,2021-05-06 21:09:41+00:00
16,36.0,-25.0,2021-05-06 21:09:41+00:00
17,90.0,-25.0,2021-05-06 21:09:41+00:00
18,-122.0,-25.0,2021-05-06 21:09:41+00:00
19,-87.0,-25.0,2021-05-06 21:09:41+00:00
20,-38.0,-25.0,2021-05-06 21:09:41+00:00
21,5.0,-24.0,2021-05-06 21:09:41+00:00
22,26.0,-24.0,2021-05-06 21:09:41+00:00
23,-30.0,-25.0,2021-05-06 21:09:41+00:00
24,124.0,-92.0,2021-05-06 21:09:41+00:00
0,83.0,-25.0,2021-05-06 21:09:42+00:00
1,86.0,-25.0,2021-05-06 21:09:42+00:00
2,119.0,-25.0,2021-05-06 21:09:42+00:00
3,-54.0,-25.0,2021-05-06 21:09:42+00:00
4,22.0,-24.0,2021-05-06 21:09:42+00:00
5,72.0,-24.0,2021-05-06 21:09:42+00:00
6,104.0,-24.0,2021-05-06 21:09:42+00:00
7,-79.0,-24.0,2021-05-06 21:09:42+00:00
8,-21.0,-24.0,2021-05-06 21:09:42+00:00
9,18.0,-23.0,2021-05-06 21:09:42+00:00
10,59.0,-23.0,2021-05-06 21:09:42+00:00
11,39.0,-23.0,2021-05-06 21:09:42+00:00
12,34.0,-23.0,2021-05-06 21:09:42+00:00
13,49.0,-23.0,2021-05-06 21:09:42+00:00
14,28.0,-23.0,2021-05-06 21:09:42+00:00
15,17.0,-23.0,2021-05-06 21:09:42+00:00
16,83.0,-23.0,2021-05-06 21:09:42+00:00
17,-12.0,-23.0,2021-05-06 21:09:42+00:00
18,-68.0,-22.0,2021-05-06 21:09:42+00:00
19,45.0,-21.0,2021-05-06 21:09:42+00:00
20,-119.0,-21.0,2021-05-06 21:09:42+00:00
21,-31.0,-21.0,2021-05-06 21:09:42+00:00
22,29.0,-20.0,2021-05-06 21:09:42+00:00
23,118.0,-120.0,2021-05-06 21:09:42+00:00
24,86.0,92.0,2021-05-06 21:09:42+00:00
0,78.0,-120.0,2021-05-06 21:09:43+00:00
1,82.0,-120.0,2021-05-06 21:09:43+00:00
2,108.0,-120.0,2021-05-06 21:09:43+00:00
3,90.0,-120.0,2021-05-06 21:09:43+00:00
4,-43.0,-121.0,2021-05-06 21:09:43+00:00
5,80.0,-121.0,2021-05-06 21:09:43+00:00
6,-50.0,-122.0,2021-05-06 21:09:43+00:00
7,80.0,-122.0,2021-05-06 21:09:43+00:00
8,-6.0,-123.0,2021-05-06 21:09:43+00:00
9,-56.0,-123.0,2021-05-06 21:09:43+00:00
10,99.0,-123.0,2021-05-06 21:09:43+00:00
11,-16.0,-124.0,2021-05-06 21:09:43+00:00
12,98.0,-124.0,2021-05-06 21:09:43+00:00
13,-71.0,-125.0,2021-05-06 21:09:43+00:00
14,-87.0,-126.0,2021-05-06 21:09:43+00:00
15,-54.0,-127.0,2021-05-06 21:09:43+00:00
16,48.0,-127.0,2021-05-06 21:09:43+00:00
17,-82.0,-128.0,2021-05-06 21:09:43+00:00
18,65.0,-128.0,2021-05-06 21:09:43+00:00
19,-86.0,127.0,2021-05-06 21:09:43+00:00
20,-64.0,126.0,2021-05-06 21:09:43+00:00
21,-64.0,125.0,2021-05-06 21:09:43+00:00
22,-25.0,124.0,2021-05-06 21:09:43+00:00
23,24.0,124.0,2021-05-06 21:09:43+00:00
24,46.0,49.0,2021-05-06 21:09:43+00:00
0,-4.0,121.0,2021-05-06 21:09:44+00:00
1,-10.0,120.0,2021-05-06 21:09:44+00:00
2,26.0,120.0,2021-05-06 21:09:44+00:00
3,-115.0,119.0,2021-05-06 21:09:44+00:00
4,12.0,119.0,2021-05-06 21:09:44+00:00
5,-87.0,118.0,2021-05-06 21:09:44+00:00
6,66.0,118.0,2021-05-06 21:09:44+00:00
7,-42.0,117.0,2021-05-06 21:09:44+00:00
8,115.0,117.0,2021-05-06 21:09:44+00:00
9,-37.0,116.0,2021-05-06 21:09:44+00:00
10,-35.0,115.0,2021-05-06 21:09:44+00:00
11,-93.0,114.0,2021-05-06 21:09:44+00:00
12,126.0,113.0,2021-05-06 21:09:44+00:00
13,-99.0,112.0,2021-05-06 21:09:44+00:00
14,15.0,112.0,2021-05-06 21:09:44+00:00
15,-127.0,111.0,2021-05-06 21:09:44+00:00
16,-34.0,110.0,2021-05-06 21:09:44+00:00
17,48.0,110.0,2021-05-06 21:09:44+00:00
18,-126.0,109.0,2021-05-06 21:09:44+00:00
19,49.0,109.0,2021-05-06 21:09:44+00:00
20,-81.0,108.0,2021-05-06 21:09:44+00:00
21,66.0,108.0,2021-05-06 21:09:44+00:00
22,-4.0,107.0,2021-05-06 21:09:44+00:00
23,-32.0,107.0,2021-05-06 21:09:44+00:00
24,-52.0,8.0,2021-05-06 21:09:44+00:00
0,114.0,107.0,2021-05-06 21:09:45+00:00
1,-27.0,106.0,2021-05-06 21:09:45+00:00
2,92.0,106.0,2021-05-06 21:09:45+00:00
3,-15.0,105.0,2021-05-06 21:09:45+00:00
4,-83.0,105.0,2021-05-06 21:09:45+00:00
5,-114.0,105.0,2021-05-06 21:09:45+00:00
6,-127.0,105.0,2021-05-06 21:09:45+00:00
7,112.0,105.0,2021-05-06 21:09:45+00:00
8,90.0,105.0,2021-05-06 21:09:45+00:00
9,51.0,105.0,2021-05-06 21:09:45+00:00
10,-19.0,104.0,2021-05-06 21:09:45+00:00
11,-89.0,104.0,2021-05-06 21:09:45+00:00
12,104.0,104.0,2021-05-06 21:09:45+00:00
13,71.0,104.0,2021-05-06 21:09:45+00:00
14,-122.0,104.0,2021-05-06 21:09:45+00:00
15,-15.0,104.0,2021-05-06 21:09:45+00:00
16,52.0,105.0,2021-05-06 21:09:45+00:00
17,118.0,105.0,2021-05-06 21:09:45+00:00
18,-46.0,105.0,2021-05-06 21:09:45+00:00
19,57.0,106.0,2021-05-06 21:09:45+00:00
20,-93.0,106.0,2021-05-06 21:09:45+00:00
21,6.0,107.0,2021-05-06 21:09:45+00:00
22,106.0,107.0,2021-05-06 21:09:45+00:00
23,-53.0,107.0,2021-05-06 21:09:45+00:00
24,38.0,-45.0,2021-05-06 21:09:45+00:00
0,-120.0,108.0,2021-05-06 21:09:46+00:00
1,-11.0,108.0,2021-05-06 21:09:46+00:00
2,102.0,109.0,2021-05-06 21:09:46+00:00
3,-38.0,109.0,2021-05-06 21:09:46+00:00
4,97.0,110.0,2021-05-06 21:09:46+00:00
5,-6.0,110.0,2021-05-06 21:09:46+00:00
6,-101.0,111.0,2021-05-06 21:09:46+00:00
7,41.0,112.0,2021-05-06 21:09:46+00:00
8,116.0,112.0,2021-05-06 21:09:46+00:00
9,-87.0,112.0,2021-05-06 21:09:46+00:00
10,-10.0,112.0,2021-05-06 21:09:46+00:00
11,91.0,113.0,2021-05-06 21:09:46+00:00
12,-52.0,113.0,2021-05-06 21:09:46+00:00
13,62.0,114.0,2021-05-06 21:09:46+00:00
14,-84.0,114.0,2021-05-06 21:09:46+00:00
15,6.0,115.0,2021-05-06 21:09:46+00:00
16,85.0,115.0,2021-05-06 21:09:46+00:00
17,-101.0,115.0,2021-05-06 21:09:46+00:00
18,-34.0,115.0,2021-05-06 21:09:46+00:00
19,38.0,116.0,2021-05-06 21:09:46+00:00
20,121.0,116.0,2021-05-06 21:09:46+00:00
21,-50.0,116.0,2021-05-06 21:09:46+00:00
22,41.0,117.0,2021-05-06 21:09:46+00:00
23,125.0,117.0,2021-05-06 21:09:46+00:00
24,-89.0,72.0,2021-05-06 21:09:46+00:00
0,-85.0,117.0,2021-05-06 21:09:47+00:00
1,-71.0,117.0,2021-05-06 21:09:47+00:00
2,-40.0,117.0,2021-05-06 21:09:47+00:00
3,10.0,118.0,2021-05-06 21:09:47+00:00
4,69.0,118.0,2021-05-06 21:09:47+00:00
5,-121.0,118.0,2021-05-06 21:09:47+00:00
6,-59.0,118.0,2021-05-06 21:09:47+00:00
7,4.0,119.0,2021-05-06 21:09:47+00:00
8,68.0,119.0,2021-05-06 21:09:47+00:00
9,-124.0,119.0,2021-05-06 21:09:47+00:00
10,-58.0,119.0,2021-05-06 21:09:47+00:00
11,12.0,120.0,2021-05-06 21:09:47+00:00
12,82.0,120.0,2021-05-06 21:09:47+00:00
13,-98.0,120.0,2021-05-06 21:09:47+00:00
14,-28.0,120.0,2021-05-06 21:09:47+00:00
15,-2.0,120.0,2021-05-06 21:09:47+00:00
16,-4.0,120.0,2021-05-06 21:09:47+00:00
17,8.0,121.0,2021-05-06 21:09:47+00:00
18,38.0,121.0,2021-05-06 21:09:47+00:00
19,75.0,121.0,2021-05-06 21:09:47+00:00
20,120.0,121.0,2021-05-06 21:09:47+00:00
21,-82.0,121.0,2021-05-06 21:09:47+00:00
22,-32.0,121.0,2021-05-06 21:09:47+00:00
23,17.0,122.0,2021-05-06 21:09:47+00:00
24,67.0,110.0,2021-05-06 21:09:47+00:00
0,122.0,122.0,2021-05-06 21:09:48+00:00
1,-80.0,122.0,2021-05-06 21:09:48+00:00
2,-27.0,122.0,2021-05-06 21:09:48+00:00
3,26.0,123.0,2021-05-06 21:09:48+00:00
4,80.0,123.0,2021-05-06 21:09:48+00:00
5,-127.0,123.0,2021-05-06 21:09:48+00:00
6,-103.0,123.0,2021-05-06 21:09:48+00:00
7,-119.0,123.0,2021-05-06 21:09:48+00:00
8,125.0,123.0,2021-05-06 21:09:48+00:00
9,-118.0,123.0,2021-05-06 21:09:48+00:00
10,-93.0,123.0,2021-05-06 21:09:48+00:00
11,-59.0,123.0,2021-05-06 21:09:48+00:00
12,-23.0,123.0,2021-05-06 21:09:48+00:00
13,12.0,124.0,2021-05-06 21:09:48+00:00
14,42.0,124.0,2021-05-06 21:09:48+00:00
15,78.0,124.0,2021-05-06 21:09:48+00:00
16,115.0,124.0,2021-05-06 21:09:48+00:00
17,-99.0,124.0,2021-05-06 21:09:48+00:00
18,-54.0,124.0,2021-05-06 21:09:48+00:00
19,-11.0,124.0,2021-05-06 21:09:48+00:00
20,32.0,125.0,2021-05-06 21:09:48+00:00
21,78.0,125.0,2021-05-06 21:09:48+00:00
22,117.0,125.0,2021-05-06 21:09:48+00:00
23,120.0,125.0,2021-05-06 21:09:48+00:00
24,81.0,44.0,2021-05-06 21:09:48+00:00
0,55.0,125.0,2021-05-06 21:09:49+00:00
1,55.0,125.0,2021-05-06 21:09:49+00:00
2,70.0,125.0,2021-05-06 21:09:49+00:00
3,96.0,125.0,2021-05-06 21:09:49+00:00
4,-125.0,125.0,2021-05-06 21:09:49+00:00
5,-91.0,125.0,2021-05-06 21:09:49+00:00
6,-67.0,125.0,2021-05-06 21:09:49+00:00
7,-42.0,125.0,2021-05-06 21:09:49+00:00
8,-14.0,125.0,2021-05-06 21:09:49+00:00
9,21.0,126.0,2021-05-06 21:09:49+00:00
10,62.0,126.0,2021-05-06 21:09:49+00:00
11,103.0,126.0,2021-05-06 21:09:49+00:00
12,-113.0,126.0,2021-05-06 21:09:49+00:00
13,-72.0,126.0,2021-05-06 21:09:49+00:00
14,-48.0,126.0,2021-05-06 21:09:49+00:00
15,-86.0,126.0,2021-05-06 21:09:49+00:00
16,117.0,126.0,2021-05-06 21:09:49+00:00
17,92.0,126.0,2021-05-06 21:09:49+00:00
18,93.0,126.0,2021-05-06 21:09:49+00:00
19,108.0,126.0,2021-05-06 21:09:49+00:00
20,-119.0,126.0,2021-05-06 21:09:49+00:00
21,-92.0,126.0,2021-05-06 21:09:49+00:00
22,-64.0,126.0,2021-05-06 21:09:49+00:00
23,-42.0,126.0,2021-05-06 21:09:49+00:00
24,-22.0,111.0,2021-05-06 21:09:49+00:00
0,2.0,127.0,2021-05-06 21:09:50+00:00
1,29.0,127.0,2021-05-06 21:09:50+00:00
2,61.0,127.0,2021-05-06 21:09:50+00:00
3,99.0,127.0,2021-05-06 21:09:50+00:00
4,-121.0,127.0,2021-05-06 21:09:50+00:00
5,-111.0,127.0,2021-05-06 21:09:50+00:00
6,92.0,127.0,2021-05-06 21:09:50+00:00
7,30.0,127.0,2021-05-06 21:09:50+00:00
8,-5.0,126.0,2021-05-06 21:09:50+00:00
9,-15.0,126.0,2021-05-06 21:09:50+00:00
10,-8.0,126.0,2021-05-06 21:09:50+00:00
11,12.0,127.0,2021-05-06 21:09:50+00:00
12,36.0,127.0,2021-05-06 21:09:50+00:00
13,55.0,127.0,2021-05-06 21:09:50+00:00
14,73.0,127.0,2021-05-06 21:09:50+00:00
15,98.0,127.0,2021-05-06 21:09:50+00:00
16,-128.0,127.0,2021-05-06 21:09:50+00:00
17,-99.0,127.0,2021-05-06 21:09:50+00:00
18,-67.0,127.0,2021-05-06 21:09:50+00:00
19,-34.0,127.0,2021-05-06 21:09:50+00:00
20,0.0,-128.0,2021-05-06 21:09:50+00:00
21,-7.0,127.0,2021-05-06 21:09:50+00:00
22,-78.0,127.0,2021-05-06 21:09:50+00:00
23,117.0,127.0,2021-05-06 21:09:50+00:00
24,95.0,-119.0,2021-05-06 21:09:50+00:00
0,96.0,127.0,2021-05-06 21:09:50+00:00
1,112.0,127.0,2021-05-06 21:09:50+00:00
2,-122.0,127.0,2021-05-06 21:09:50+00:00
3,-101.0,127.0,2021-05-06 21:09:50+00:00
4,-83.0,127.0,2021-05-06 21:09:50+00:00
5,-60.0,127.0,2021-05-06 21:09:50+00:00
6,-31.0,127.0,2021-05-06 21:09:50+00:00
7,0.0,-128.0,2021-05-06 21:09:50+00:00
8,38.0,-128.0,2021-05-06 21:09:50+00:00
9,78.0,-128.0,2021-05-06 21:09:50+00:00
10,122.0,-128.0,2021-05-06 21:09:50+00:00
11,-110.0,-128.0,2021-05-06 21:09:50+00:00
12,92.0,-128.0,2021-05-06 21:09:50+00:00
13,8.0,-128.0,2021-05-06 21:09:50+00:00
14,-38.0,127.0,2021-05-06 21:09:50+00:00
15,-54.0,127.0,2021-05-06 21:09:50+00:00
16,-42.0,127.0,2021-05-06 21:09:50+00:00
17,-18.0,127.0,2021-05-06 21:09:50+00:00
18,12.0,-128.0,2021-05-06 21:09:50+00:00
19,37.0,-128.0,2021-05-06 21:09:50+00:00
20,56.0,-128.0,2021-05-06 21:09:50+00:00
21,75.0,-128.0,2021-05-06 21:09:50+00:00
22,97.0,-128.0,2021-05-06 21:09:50+00:00
23,126.0,-128.0,2021-05-06 21:09:50+00:00
24,-96.0,-36.0,2021-05-06 21:09:50+00:00
0,-55.0,-128.0,2021-05-06 21:09:52+00:00
1,-29.0,-128.0,2021-05-06 21:09:52+00:00
2,-73.0,-128.0,2021-05-06 21:09:52+00:00
3,105.0,-128.0,2021-05-06 21:09:52+00:00
4,52.0,-128.0,2021-05-06 21:09:52+00:00
5,33.0,-128.0,2021-05-06 21:09:52+00:00
6,41.0,-128.0,2021-05-06 21:09:52+00:00
7,69.0,-128.0,2021-05-06 21:09:52+00:00
8,98.0,-128.0,2021-05-06 21:09:52+00:00
9,120.0,-128.0,2021-05-06 21:09:52+00:00
10,-107.0,-128.0,2021-05-06 21:09:52+00:00
11,-77.0,-128.0,2021-05-06 21:09:52+00:00
12,-44.0,-128.0,2021-05-06 21:09:52+00:00
13,-8.0,-128.0,2021-05-06 21:09:52+00:00
14,28.0,-127.0,2021-05-06 21:09:52+00:00
15,66.0,-127.0,2021-05-06 21:09:52+00:00
16,62.0,-127.0,2021-05-06 21:09:52+00:00
17,-18.0,-128.0,2021-05-06 21:09:52+00:00
18,-93.0,-128.0,2021-05-06 21:09:52+00:00
19,-126.0,-128.0,2021-05-06 21:09:52+00:00
20,127.0,-128.0,2021-05-06 21:09:52+00:00
21,-110.0,-128.0,2021-05-06 21:09:52+00:00
22,-83.0,-128.0,2021-05-06 21:09:52+00:00
23,-65.0,-128.0,2021-05-06 21:09:52+00:00
24,-46.0,-93.0,2021-05-06 21:09:52+00:00
0,-27.0,-128.0,2021-05-06 21:09:53+00:00
1,-3.0,-128.0,2021-05-06 21:09:53+00:00
2,30.0,-127.0,2021-05-06 21:09:53+00:00
3,62.0,-127.0,2021-05-06 21:09:53+00:00
4,105.0,-127.0,2021-05-06 21:09:53+00:00
5,-113.0,-127.0,2021-05-06 21:09:53+00:00
6,105.0,-127.0,2021-05-06 21:09:53+00:00
7,10.0,-127.0,2021-05-06 21:09:53+00:00
8,-66.0,-128.0,2021-05-06 21:09:53+00:00
9,-100.0,-128.0,2021-05-06 21:09:53+00:00
10,-107.0,-128.0,2021-05-06 21:09:53+00:00
11,-93.0,-128.0,2021-05-06 21:09:53+00:00
12,-68.0,-128.0,2021-05-06 21:09:53+00:00
13,-46.0,-128.0,2021-05-06 21:09:53+00:00
14,-27.0,-128.0,2021-05-06 21:09:53+00:00
15,-5.0,-128.0,2021-05-06 21:09:53+00:00
16,18.0,-127.0,2021-05-06 21:09:53+00:00
17,45.0,-127.0,2021-05-06 21:09:53+00:00
18,77.0,-127.0,2021-05-06 21:09:53+00:00
19,110.0,-127.0,2021-05-06 21:09:53+00:00
20,117.0,-127.0,2021-05-06 21:09:53+00:00
21,45.0,-127.0,2021-05-06 21:09:53+00:00
22,-44.0,-128.0,2021-05-06 21:09:53+00:00
23,-96.0,-128.0,2021-05-06 21:09:53+00:00
24,-112.0,122.0,2021-05-06 21:09:53+00:00
0,-105.0,-128.0,2021-05-06 21:09:54+00:00
1,-90.0,-128.0,2021-05-06 21:09:54+00:00
2,-73.0,-128.0,2021-05-06 21:09:54+00:00
3,-59.0,-128.0,2021-05-06 21:09:54+00:00
4,-41.0,-128.0,2021-05-06 21:09:54+00:00
5,-19.0,-128.0,2021-05-06 21:09:54+00:00
6,10.0,-127.0,2021-05-06 21:09:54+00:00
7,47.0,-127.0,2021-05-06 21:09:54+00:00
8,88.0,-127.0,2021-05-06 21:09:54+00:00
9,114.0,-127.0,2021-05-06 21:09:54+00:00
10,61.0,-127.0,2021-05-06 21:09:54+00:00
11,-44.0,-128.0,2021-05-06 21:09:54+00:00
12,-118.0,-128.0,2021-05-06 21:09:54+00:00
13,106.0,-128.0,2021-05-06 21:09:54+00:00
14,106.0,-128.0,2021-05-06 21:09:54+00:00
15,127.0,-128.0,2021-05-06 21:09:54+00:00
16,-105.0,-128.0,2021-05-06 21:09:54+00:00
17,-82.0,-128.0,2021-05-06 21:09:54+00:00
18,-63.0,-128.0,2021-05-06 21:09:54+00:00
19,-43.0,-128.0,2021-05-06 21:09:54+00:00
20,-21.0,-128.0,2021-05-06 21:09:54+00:00
21,10.0,-127.0,2021-05-06 21:09:54+00:00
22,45.0,-127.0,2021-05-06 21:09:54+00:00
23,83.0,-127.0,2021-05-06 21:09:54+00:00
24,66.0,45.0,2021-05-06 21:09:54+00:00
0,-35.0,-128.0,2021-05-06 21:09:55+00:00
1,-128.0,-128.0,2021-05-06 21:09:55+00:00
2,74.0,-128.0,2021-05-06 21:09:55+00:00
3,54.0,-128.0,2021-05-06 21:09:55+00:00
4,58.0,-128.0,2021-05-06 21:09:55+00:00
5,75.0,-128.0,2021-05-06 21:09:55+00:00
6,90.0,-128.0,2021-05-06 21:09:55+00:00
7,105.0,-128.0,2021-05-06 21:09:55+00:00
8,126.0,-128.0,2021-05-06 21:09:55+00:00
9,-105.0,-128.0,2021-05-06 21:09:55+00:00
10,-74.0,-128.0,2021-05-06 21:09:55+00:00
11,-36.0,-128.0,2021-05-06 21:09:55+00:00
12,3.0,-127.0,2021-05-06 21:09:55+00:00
13,29.0,-127.0,2021-05-06 21:09:55+00:00
14,-34.0,-128.0,2021-05-06 21:09:55+00:00
15,94.0,-128.0,2021-05-06 21:09:55+00:00
16,-2.0,127.0,2021-05-06 21:09:55+00:00
17,-52.0,127.0,2021-05-06 21:09:55+00:00
18,-67.0,127.0,2021-05-06 21:09:55+00:00
19,-57.0,127.0,2021-05-06 21:09:55+00:00
20,-36.0,127.0,2021-05-06 21:09:55+00:00
21,-19.0,127.0,2021-05-06 21:09:55+00:00
22,-5.0,127.0,2021-05-06 21:09:55+00:00
23,7.0,-128.0,2021-05-06 21:09:55+00:00
24,28.0,125.0,2021-05-06 21:09:55+00:00
0,55.0,-128.0,2021-05-06 21:09:56+00:00
1,92.0,-128.0,2021-05-06 21:09:56+00:00
2,-122.0,-128.0,2021-05-06 21:09:56+00:00
3,-81.0,-128.0,2021-05-06 21:09:56+00:00
4,-101.0,-128.0,2021-05-06 21:09:56+00:00
5,32.0,-128.0,2021-05-06 21:09:56+00:00
6,-86.0,127.0,2021-05-06 21:09:56+00:00
7,97.0,127.0,2021-05-06 21:09:56+00:00
8,59.0,127.0,2021-05-06 21:09:56+00:00
9,57.0,127.0,2021-05-06 21:09:56+00:00
10,72.0,127.0,2021-05-06 21:09:56+00:00
11,91.0,127.0,2021-05-06 21:09:56+00:00
12,108.0,127.0,2021-05-06 21:09:56+00:00
13,-128.0,127.0,2021-05-06 21:09:56+00:00
14,-102.0,127.0,2021-05-06 21:09:56+00:00
15,-72.0,127.0,2021-05-06 21:09:56+00:00
16,-46.0,127.0,2021-05-06 21:09:56+00:00
17,-14.0,127.0,2021-05-06 21:09:56+00:00
18,22.0,-128.0,2021-05-06 21:09:56+00:00
19,59.0,-128.0,2021-05-06 21:09:56+00:00
20,20.0,-128.0,2021-05-06 21:09:56+00:00
21,-110.0,127.0,2021-05-06 21:09:56+00:00
22,27.0,127.0,2021-05-06 21:09:56+00:00
23,-45.0,126.0,2021-05-06 21:09:56+00:00
24,-78.0,83.0,2021-05-06 21:09:56+00:00
0,-81.0,126.0,2021-05-06 21:09:57+00:00
1,-74.0,126.0,2021-05-06 21:09:57+00:00
2,-65.0,126.0,2021-05-06 21:09:57+00:00
3,-50.0,126.0,2021-05-06 21:09:57+00:00
4,-31.0,126.0,2021-05-06 21:09:57+00:00
5,-5.0,126.0,2021-05-06 21:09:57+00:00
6,25.0,127.0,2021-05-06 21:09:57+00:00
7,64.0,127.0,2021-05-06 21:09:57+00:00
8,108.0,127.0,2021-05-06 21:09:57+00:00
9,-108.0,127.0,2021-05-06 21:09:57+00:00
10,-95.0,127.0,2021-05-06 21:09:57+00:00
11,68.0,127.0,2021-05-06 21:09:57+00:00
12,-76.0,126.0,2021-05-06 21:09:57+00:00
13,82.0,126.0,2021-05-06 21:09:57+00:00
14,30.0,126.0,2021-05-06 21:09:57+00:00
15,22.0,126.0,2021-05-06 21:09:57+00:00
16,40.0,126.0,2021-05-06 21:09:57+00:00
17,61.0,126.0,2021-05-06 21:09:57+00:00
18,75.0,126.0,2021-05-06 21:09:57+00:00
19,88.0,126.0,2021-05-06 21:09:57+00:00
20,110.0,126.0,2021-05-06 21:09:57+00:00
21,-116.0,126.0,2021-05-06 21:09:57+00:00
22,-73.0,126.0,2021-05-06 21:09:57+00:00
23,-28.0,126.0,2021-05-06 21:09:57+00:00
24,27.0,-7.0,2021-05-06 21:09:57+00:00
0,81.0,127.0,2021-05-06 21:09:58+00:00
1,99.0,127.0,2021-05-06 21:09:58+00:00
2,-8.0,126.0,2021-05-06 21:09:58+00:00
3,99.0,126.0,2021-05-06 21:09:58+00:00
4,3.0,126.0,2021-05-06 21:09:58+00:00
5,-45.0,125.0,2021-05-06 21:09:58+00:00
6,-49.0,125.0,2021-05-06 21:09:58+00:00
7,-27.0,125.0,2021-05-06 21:09:58+00:00
8,3.0,126.0,2021-05-06 21:09:58+00:00
9,35.0,126.0,2021-05-06 21:09:58+00:00
10,66.0,126.0,2021-05-06 21:09:58+00:00
11,96.0,126.0,2021-05-06 21:09:58+00:00
12,-120.0,126.0,2021-05-06 21:09:58+00:00
13,-79.0,126.0,2021-05-06 21:09:58+00:00
14,-30.0,126.0,2021-05-06 21:09:58+00:00
15,21.0,127.0,2021-05-06 21:09:58+00:00
16,81.0,127.0,2021-05-06 21:09:58+00:00
17,-127.0,127.0,2021-05-06 21:09:58+00:00
18,89.0,127.0,2021-05-06 21:09:58+00:00
19,-45.0,126.0,2021-05-06 21:09:58+00:00
20,93.0,126.0,2021-05-06 21:09:58+00:00
21,29.0,126.0,2021-05-06 21:09:58+00:00
22,12.0,126.0,2021-05-06 21:09:58+00:00
23,25.0,126.0,2021-05-06 21:09:58+00:00
24,55.0,93.0,2021-05-06 21:09:58+00:00
0,89.0,126.0,2021-05-06 21:09:59+00:00
1,119.0,126.0,2021-05-06 21:09:59+00:00
2,-106.0,126.0,2021-05-06 21:09:59+00:00
3,-65.0,126.0,2021-05-06 21:09:59+00:00
4,-18.0,126.0,2021-05-06 21:09:59+00:00
5,28.0,127.0,2021-05-06 21:09:59+00:00
6,73.0,127.0,2021-05-06 21:09:59+00:00
7,122.0,127.0,2021-05-06 21:09:59+00:00
8,-89.0,127.0,2021-05-06 21:09:59+00:00
9,-118.0,127.0,2021-05-06 21:09:59+00:00
10,12.0,127.0,2021-05-06 21:09:59+00:00
11,-102.0,126.0,2021-05-06 21:09:59+00:00
12,98.0,126.0,2021-05-06 21:09:59+00:00
13,92.0,126.0,2021-05-06 21:09:59+00:00
14,111.0,126.0,2021-05-06 21:09:59+00:00
15,-115.0,126.0,2021-05-06 21:09:59+00:00
16,-84.0,126.0,2021-05-06 21:09:59+00:00
17,-61.0,126.0,2021-05-06 21:09:59+00:00
18,-31.0,126.0,2021-05-06 21:09:59+00:00
19,6.0,127.0,2021-05-06 21:09:59+00:00
20,53.0,127.0,2021-05-06 21:09:59+00:00
21,107.0,127.0,2021-05-06 21:09:59+00:00
22,-90.0,127.0,2021-05-06 21:09:59+00:00
23,-31.0,127.0,2021-05-06 21:09:59+00:00
24,-20.0,-20.0,2021-05-06 21:09:59+00:00
0,127.0,127.0,2021-05-06 21:10:00+00:00
1,-18.0,126.0,2021-05-06 21:10:00+00:00
2,-102.0,126.0,2021-05-06 21:10:00+00:00
3,126.0,126.0,2021-05-06 21:10:00+00:00
4,-116.0,126.0,2021-05-06 21:10:00+00:00
5,-81.0,126.0,2021-05-06 21:10:00+00:00
6,-39.0,126.0,2021-05-06 21:10:00+00:00
7,-4.0,126.0,2021-05-06 21:10:00+00:00
8,27.0,127.0,2021-05-06 21:10:00+00:00
9,57.0,127.0,2021-05-06 21:10:00+00:00
10,94.0,127.0,2021-05-06 21:10:00+00:00
11,-114.0,127.0,2021-05-06 21:10:00+00:00
12,-60.0,127.0,2021-05-06 21:10:00+00:00
13,-2.0,127.0,2021-05-06 21:10:00+00:00
14,60.0,-128.0,2021-05-06 21:10:00+00:00
15,98.0,-128.0,2021-05-06 21:10:00+00:00
16,18.0,-128.0,2021-05-06 21:10:00+00:00
17,124.0,127.0,2021-05-06 21:10:00+00:00
18,20.0,127.0,2021-05-06 21:10:00+00:00
19,-26.0,126.0,2021-05-06 21:10:00+00:00
20,-29.0,126.0,2021-05-06 21:10:00+00:00
21,-1.0,126.0,2021-05-06 21:10:00+00:00
22,37.0,127.0,2021-05-06 21:10:00+00:00
23,74.0,127.0,2021-05-06 21:10:00+00:00
24,109.0,-127.0,2021-05-06 21:10:00+00:00
0,-109.0,127.0,2021-05-06 21:10:01+00:00
1,-67.0,127.0,2021-05-06 21:10:01+00:00
2,-23.0,127.0,2021-05-06 21:10:01+00:00
3,24.0,-128.0,2021-05-06 21:10:01+00:00
4,74.0,-128.0,2021-05-06 21:10:01+00:00
5,-125.0,-128.0,2021-05-06 21:10:01+00:00
6,-105.0,-128.0,2021-05-06 21:10:01+00:00
7,61.0,-128.0,2021-05-06 21:10:01+00:00
8,-72.0,127.0,2021-05-06 21:10:01+00:00
9,102.0,127.0,2021-05-06 21:10:01+00:00
10,75.0,127.0,2021-05-06 21:10:01+00:00
11,83.0,127.0,2021-05-06 21:10:01+00:00
12,111.0,127.0,2021-05-06 21:10:01+00:00
13,-113.0,127.0,2021-05-06 21:10:01+00:00
14,-84.0,127.0,2021-05-06 21:10:01+00:00
15,-53.0,127.0,2021-05-06 21:10:01+00:00
16,-17.0,127.0,2021-05-06 21:10:01+00:00
17,27.0,-128.0,2021-05-06 21:10:01+00:00
18,76.0,-128.0,2021-05-06 21:10:01+00:00
19,-126.0,-128.0,2021-05-06 21:10:01+00:00
20,-72.0,-128.0,2021-05-06 21:10:01+00:00
21,-19.0,-128.0,2021-05-06 21:10:01+00:00
22,-12.0,-128.0,2021-05-06 21:10:01+00:00
23,-122.0,-128.0,2021-05-06 21:10:01+00:00
24,-8.0,43.0,2021-05-06 21:10:01+00:00
0,-89.0,127.0,2021-05-06 21:10:02+00:00
1,-110.0,127.0,2021-05-06 21:10:02+00:00
2,-94.0,127.0,2021-05-06 21:10:02+00:00
3,-58.0,127.0,2021-05-06 21:10:02+00:00
4,-27.0,127.0,2021-05-06 21:10:02+00:00
5,-1.0,127.0,2021-05-06 21:10:02+00:00
6,21.0,-128.0,2021-05-06 21:10:02+00:00
7,44.0,-128.0,2021-05-06 21:10:02+00:00
8,78.0,-128.0,2021-05-06 21:10:02+00:00
9,124.0,-128.0,2021-05-06 21:10:02+00:00
10,-85.0,-128.0,2021-05-06 21:10:02+00:00
11,-29.0,-128.0,2021-05-06 21:10:02+00:00
12,17.0,-127.0,2021-05-06 21:10:02+00:00
13,-37.0,-128.0,2021-05-06 21:10:02+00:00
14,70.0,-128.0,2021-05-06 21:10:02+00:00
15,-47.0,127.0,2021-05-06 21:10:02+00:00
16,-99.0,127.0,2021-05-06 21:10:02+00:00
17,-109.0,127.0,2021-05-06 21:10:02+00:00
18,-83.0,127.0,2021-05-06 21:10:02+00:00
19,-46.0,127.0,2021-05-06 21:10:02+00:00
20,-12.0,127.0,2021-05-06 21:10:02+00:00
21,20.0,-128.0,2021-05-06 21:10:02+00:00
22,53.0,-128.0,2021-05-06 21:10:02+00:00
23,90.0,-128.0,2021-05-06 21:10:02+00:00
24,126.0,-1.0,2021-05-06 21:10:02+00:00
0,-89.0,-128.0,2021-05-06 21:10:03+00:00
1,-40.0,-128.0,2021-05-06 21:10:03+00:00
2,14.0,-127.0,2021-05-06 21:10:03+00:00
3,35.0,-127.0,2021-05-06 21:10:03+00:00
4,-65.0,-128.0,2021-05-06 21:10:03+00:00
5,45.0,-128.0,2021-05-06 21:10:03+00:00
6,-49.0,127.0,2021-05-06 21:10:03+00:00
7,-89.0,127.0,2021-05-06 21:10:03+00:00
8,-93.0,127.0,2021-05-06 21:10:03+00:00
9,-72.0,127.0,2021-05-06 21:10:03+00:00
10,-44.0,127.0,2021-05-06 21:10:03+00:00
11,-16.0,127.0,2021-05-06 21:10:03+00:00
12,12.0,-128.0,2021-05-06 21:10:03+00:00
13,46.0,-128.0,2021-05-06 21:10:03+00:00
14,86.0,-128.0,2021-05-06 21:10:03+00:00
15,-122.0,-128.0,2021-05-06 21:10:03+00:00
16,-72.0,-128.0,2021-05-06 21:10:03+00:00
17,-22.0,-128.0,2021-05-06 21:10:03+00:00
18,13.0,-127.0,2021-05-06 21:10:03+00:00
19,-22.0,-128.0,2021-05-06 21:10:03+00:00
20,59.0,-128.0,2021-05-06 21:10:03+00:00
21,106.0,127.0,2021-05-06 21:10:03+00:00
22,-61.0,126.0,2021-05-06 21:10:03+00:00
23,62.0,126.0,2021-05-06 21:10:03+00:00
24,-38.0,125.0,2021-05-06 21:10:03+00:00
0,-108.0,125.0,2021-05-06 21:10:04+00:00
1,86.0,125.0,2021-05-06 21:10:04+00:00
2,32.0,125.0,2021-05-06 21:10:04+00:00
3,-1.0,124.0,2021-05-06 21:10:04+00:00
4,6.0,125.0,2021-05-06 21:10:04+00:00
5,48.0,125.0,2021-05-06 21:10:04+00:00
6,108.0,125.0,2021-05-06 21:10:04+00:00
7,-84.0,125.0,2021-05-06 21:10:04+00:00
8,-18.0,125.0,2021-05-06 21:10:04+00:00
9,24.0,126.0,2021-05-06 21:10:04+00:00
10,-60.0,125.0,2021-05-06 21:10:04+00:00
11,52.0,125.0,2021-05-06 21:10:04+00:00
12,-34.0,124.0,2021-05-06 21:10:04+00:00
13,-43.0,124.0,2021-05-06 21:10:04+00:00
14,-11.0,124.0,2021-05-06 21:10:04+00:00
15,42.0,125.0,2021-05-06 21:10:04+00:00
16,99.0,125.0,2021-05-06 21:10:04+00:00
17,-108.0,125.0,2021-05-06 21:10:04+00:00
18,-64.0,125.0,2021-05-06 21:10:04+00:00
19,-15.0,125.0,2021-05-06 21:10:04+00:00
20,34.0,126.0,2021-05-06 21:10:04+00:00
21,82.0,126.0,2021-05-06 21:10:04+00:00
22,-116.0,126.0,2021-05-06 21:10:04+00:00
23,-50.0,126.0,2021-05-06 21:10:04+00:00
24,12.0,-121.0,2021-05-06 21:10:04+00:00
0,-8.0,126.0,2021-05-06 21:10:05+00:00
1,113.0,126.0,2021-05-06 21:10:05+00:00
2,-10.0,125.0,2021-05-06 21:10:05+00:00
3,-72.0,125.0,2021-05-06 21:10:05+00:00
4,-88.0,125.0,2021-05-06 21:10:05+00:00
5,-73.0,125.0,2021-05-06 21:10:05+00:00
6,-42.0,125.0,2021-05-06 21:10:05+00:00
7,-9.0,125.0,2021-05-06 21:10:05+00:00
8,25.0,126.0,2021-05-06 21:10:05+00:00
9,63.0,126.0,2021-05-06 21:10:05+00:00
10,110.0,126.0,2021-05-06 21:10:05+00:00
11,-89.0,126.0,2021-05-06 21:10:05+00:00
12,-31.0,126.0,2021-05-06 21:10:05+00:00
13,32.0,127.0,2021-05-06 21:10:05+00:00
14,92.0,127.0,2021-05-06 21:10:05+00:00
15,-109.0,127.0,2021-05-06 21:10:05+00:00
16,-116.0,127.0,2021-05-06 21:10:05+00:00
17,8.0,127.0,2021-05-06 21:10:05+00:00
18,127.0,126.0,2021-05-06 21:10:05+00:00
19,58.0,126.0,2021-05-06 21:10:05+00:00
20,38.0,126.0,2021-05-06 21:10:05+00:00
21,59.0,126.0,2021-05-06 21:10:05+00:00
22,94.0,126.0,2021-05-06 21:10:05+00:00
23,-127.0,126.0,2021-05-06 21:10:05+00:00
24,-98.0,-65.0,2021-05-06 21:10:05+00:00
0,-68.0,126.0,2021-05-06 21:10:06+00:00
1,-27.0,126.0,2021-05-06 21:10:06+00:00
2,24.0,127.0,2021-05-06 21:10:06+00:00
3,81.0,127.0,2021-05-06 21:10:06+00:00
4,-111.0,127.0,2021-05-06 21:10:06+00:00
5,-42.0,127.0,2021-05-06 21:10:06+00:00
6,24.0,-128.0,2021-05-06 21:10:06+00:00
7,87.0,-128.0,2021-05-06 21:10:06+00:00
8,91.0,-128.0,2021-05-06 21:10:06+00:00
9,-32.0,127.0,2021-05-06 21:10:06+00:00
10,88.0,127.0,2021-05-06 21:10:06+00:00
11,19.0,127.0,2021-05-06 21:10:06+00:00
12,6.0,127.0,2021-05-06 21:10:06+00:00
13,28.0,127.0,2021-05-06 21:10:06+00:00
14,69.0,127.0,2021-05-06 21:10:06+00:00
15,112.0,127.0,2021-05-06 21:10:06+00:00
16,-107.0,127.0,2021-05-06 21:10:06+00:00
17,-76.0,127.0,2021-05-06 21:10:06+00:00
18,-42.0,127.0,2021-05-06 21:10:06+00:00
19,0.0,-128.0,2021-05-06 21:10:06+00:00
20,52.0,-128.0,2021-05-06 21:10:06+00:00
21,109.0,-128.0,2021-05-06 21:10:06+00:00
22,-89.0,-128.0,2021-05-06 21:10:06+00:00
23,-24.0,-128.0,2021-05-06 21:10:06+00:00
24,39.0,-26.0,2021-05-06 21:10:06+00:00
0,28.0,-127.0,2021-05-06 21:10:07+00:00
1,-96.0,-128.0,2021-05-06 21:10:07+00:00
2,38.0,-128.0,2021-05-06 21:10:07+00:00
3,-17.0,127.0,2021-05-06 21:10:07+00:00
4,-22.0,127.0,2021-05-06 21:10:07+00:00
5,12.0,-128.0,2021-05-06 21:10:07+00:00
6,54.0,-128.0,2021-05-06 21:10:07+00:00
7,94.0,-128.0,2021-05-06 21:10:07+00:00
8,-123.0,-128.0,2021-05-06 21:10:07+00:00
9,-89.0,-128.0,2021-05-06 21:10:07+00:00
10,-53.0,-128.0,2021-05-06 21:10:07+00:00
11,-16.0,-128.0,2021-05-06 21:10:07+00:00
12,26.0,-127.0,2021-05-06 21:10:07+00:00
13,73.0,-127.0,2021-05-06 21:10:07+00:00
14,-125.0,-127.0,2021-05-06 21:10:07+00:00
15,-75.0,-127.0,2021-05-06 21:10:07+00:00
16,-101.0,-127.0,2021-05-06 21:10:07+00:00
17,42.0,-127.0,2021-05-06 21:10:07+00:00
18,-55.0,-128.0,2021-05-06 21:10:07+00:00
19,-95.0,-128.0,2021-05-06 21:10:07+00:00
20,-96.0,-128.0,2021-05-06 21:10:07+00:00
21,-69.0,-128.0,2021-05-06 21:10:07+00:00
22,-34.0,-128.0,2021-05-06 21:10:07+00:00
23,-1.0,-128.0,2021-05-06 21:10:07+00:00
24,28.0,-118.0,2021-05-06 21:10:07+00:00
0,65.0,-127.0,2021-05-06 21:10:08+00:00
1,103.0,-127.0,2021-05-06 21:10:08+00:00
2,-104.0,-127.0,2021-05-06 21:10:08+00:00
3,-55.0,-127.0,2021-05-06 21:10:08+00:00
4,-5.0,-127.0,2021-05-06 21:10:08+00:00
5,40.0,-126.0,2021-05-06 21:10:08+00:00
6,17.0,-126.0,2021-05-06 21:10:08+00:00
7,-106.0,-127.0,2021-05-06 21:10:08+00:00
8,34.0,-127.0,2021-05-06 21:10:08+00:00
9,-24.0,-128.0,2021-05-06 21:10:08+00:00
10,-36.0,-128.0,2021-05-06 21:10:08+00:00
11,-16.0,-128.0,2021-05-06 21:10:08+00:00
12,18.0,-127.0,2021-05-06 21:10:08+00:00
13,44.0,-127.0,2021-05-06 21:10:08+00:00
14,64.0,-127.0,2021-05-06 21:10:08+00:00
15,85.0,-127.0,2021-05-06 21:10:08+00:00
16,115.0,-127.0,2021-05-06 21:10:08+00:00
17,-101.0,-127.0,2021-05-06 21:10:08+00:00
18,-54.0,-127.0,2021-05-06 21:10:08+00:00
19,0.0,-126.0,2021-05-06 21:10:08+00:00
20,54.0,-126.0,2021-05-06 21:10:08+00:00
21,36.0,-126.0,2021-05-06 21:10:08+00:00
22,-97.0,-127.0,2021-05-06 21:10:08+00:00
23,25.0,-127.0,2021-05-06 21:10:08+00:00
24,-49.0,116.0,2021-05-06 21:10:08+00:00
0,-70.0,-128.0,2021-05-06 21:10:09+00:00
1,-58.0,-128.0,2021-05-06 21:10:09+00:00
2,-31.0,-128.0,2021-05-06 21:10:09+00:00
3,-4.0,-128.0,2021-05-06 21:10:09+00:00
4,23.0,-127.0,2021-05-06 21:10:09+00:00
5,52.0,-127.0,2021-05-06 21:10:09+00:00
6,83.0,-127.0,2021-05-06 21:10:09+00:00
7,112.0,-127.0,2021-05-06 21:10:09+00:00
8,-108.0,-127.0,2021-05-06 21:10:09+00:00
9,-62.0,-127.0,2021-05-06 21:10:09+00:00
10,-18.0,-127.0,2021-05-06 21:10:09+00:00
11,-55.0,-127.0,2021-05-06 21:10:09+00:00
12,69.0,-127.0,2021-05-06 21:10:09+00:00
13,-49.0,-128.0,2021-05-06 21:10:09+00:00
14,-103.0,-128.0,2021-05-06 21:10:09+00:00
15,-120.0,-128.0,2021-05-06 21:10:09+00:00
16,-109.0,-128.0,2021-05-06 21:10:09+00:00
17,-95.0,-128.0,2021-05-06 21:10:09+00:00
18,-80.0,-128.0,2021-05-06 21:10:09+00:00
19,-62.0,-128.0,2021-05-06 21:10:09+00:00
20,-41.0,-128.0,2021-05-06 21:10:09+00:00
21,-13.0,-128.0,2021-05-06 21:10:09+00:00
22,22.0,-127.0,2021-05-06 21:10:09+00:00
23,64.0,-127.0,2021-05-06 21:10:09+00:00
24,112.0,19.0,2021-05-06 21:10:09+00:00
0,-108.0,-127.0,2021-05-06 21:10:10+00:00
1,92.0,-127.0,2021-05-06 21:10:10+00:00
2,-58.0,-128.0,2021-05-06 21:10:10+00:00
3,78.0,-128.0,2021-05-06 21:10:10+00:00
4,20.0,-128.0,2021-05-06 21:10:10+00:00
5,8.0,-128.0,2021-05-06 21:10:10+00:00
6,24.0,-128.0,2021-05-06 21:10:10+00:00
7,48.0,-128.0,2021-05-06 21:10:10+00:00
8,68.0,-128.0,2021-05-06 21:10:10+00:00
9,84.0,-128.0,2021-05-06 21:10:10+00:00
10,98.0,-128.0,2021-05-06 21:10:10+00:00
11,117.0,-128.0,2021-05-06 21:10:10+00:00
12,-109.0,-128.0,2021-05-06 21:10:10+00:00
13,-71.0,-128.0,2021-05-06 21:10:10+00:00
14,-24.0,-128.0,2021-05-06 21:10:10+00:00
15,15.0,-127.0,2021-05-06 21:10:10+00:00
16,-52.0,-128.0,2021-05-06 21:10:10+00:00
17,50.0,-128.0,2021-05-06 21:10:10+00:00
18,-76.0,127.0,2021-05-06 21:10:10+00:00
19,106.0,127.0,2021-05-06 21:10:10+00:00
20,77.0,127.0,2021-05-06 21:10:10+00:00
21,85.0,127.0,2021-05-06 21:10:10+00:00
22,102.0,127.0,2021-05-06 21:10:10+00:00
23,120.0,127.0,2021-05-06 21:10:10+00:00
24,-125.0,91.0,2021-05-06 21:10:10+00:00
0,-103.0,127.0,2021-05-06 21:10:11+00:00
1,-67.0,127.0,2021-05-06 21:10:11+00:00
2,-26.0,127.0,2021-05-06 21:10:11+00:00
3,11.0,-128.0,2021-05-06 21:10:11+00:00
4,56.0,-128.0,2021-05-06 21:10:11+00:00
5,105.0,-128.0,2021-05-06 21:10:11+00:00
6,124.0,-128.0,2021-05-06 21:10:11+00:00
7,15.0,-128.0,2021-05-06 21:10:11+00:00
8,112.0,127.0,2021-05-06 21:10:11+00:00
9,0.0,127.0,2021-05-06 21:10:11+00:00
10,-61.0,126.0,2021-05-06 21:10:11+00:00
11,-86.0,126.0,2021-05-06 21:10:11+00:00
12,-79.0,126.0,2021-05-06 21:10:11+00:00
13,-67.0,126.0,2021-05-06 21:10:11+00:00
14,-46.0,126.0,2021-05-06 21:10:11+00:00
15,-15.0,126.0,2021-05-06 21:10:11+00:00
16,23.0,127.0,2021-05-06 21:10:11+00:00
17,69.0,127.0,2021-05-06 21:10:11+00:00
18,117.0,127.0,2021-05-06 21:10:11+00:00
19,-93.0,127.0,2021-05-06 21:10:11+00:00
20,-47.0,127.0,2021-05-06 21:10:11+00:00
21,3.0,-128.0,2021-05-06 21:10:11+00:00
22,60.0,-128.0,2021-05-06 21:10:11+00:00
23,90.0,-128.0,2021-05-06 21:10:11+00:00
24,-12.0,98.0,2021-05-06 21:10:11+00:00
0,79.0,127.0,2021-05-06 21:10:12+00:00
1,-44.0,126.0,2021-05-06 21:10:12+00:00
2,-111.0,126.0,2021-05-06 21:10:12+00:00
3,118.0,126.0,2021-05-06 21:10:12+00:00
4,121.0,126.0,2021-05-06 21:10:12+00:00
5,-117.0,126.0,2021-05-06 21:10:12+00:00
6,-102.0,126.0,2021-05-06 21:10:12+00:00
7,-77.0,126.0,2021-05-06 21:10:12+00:00
8,-30.0,126.0,2021-05-06 21:10:12+00:00
9,13.0,127.0,2021-05-06 21:10:12+00:00
10,52.0,127.0,2021-05-06 21:10:12+00:00
11,57.0,127.0,2021-05-06 21:10:12+00:00
12,100.0,127.0,2021-05-06 21:10:12+00:00
13,115.0,127.0,2021-05-06 21:10:12+00:00
14,75.0,127.0,2021-05-06 21:10:12+00:00
15,-25.0,126.0,2021-05-06 21:10:12+00:00
16,-77.0,125.0,2021-05-06 21:10:12+00:00
17,-100.0,123.0,2021-05-06 21:10:12+00:00
18,48.0,121.0,2021-05-06 21:10:12+00:00
19,-81.0,118.0,2021-05-06 21:10:12+00:00
20,-39.0,116.0,2021-05-06 21:10:12+00:00
21,-76.0,115.0,2021-05-06 21:10:12+00:00
22,-15.0,114.0,2021-05-06 21:10:12+00:00
23,-117.0,114.0,2021-05-06 21:10:12+00:00
24,107.0,64.0,2021-05-06 21:10:12+00:00
0,111.0,114.0,2021-05-06 21:10:13+00:00
1,49.0,114.0,2021-05-06 21:10:13+00:00
2,-6.0,113.0,2021-05-06 21:10:13+00:00
3,-29.0,113.0,2021-05-06 21:10:13+00:00
4,71.0,113.0,2021-05-06 21:10:13+00:00
5,-17.0,112.0,2021-05-06 21:10:13+00:00
6,-109.0,112.0,2021-05-06 21:10:13+00:00
7,31.0,112.0,2021-05-06 21:10:13+00:00
8,105.0,111.0,2021-05-06 21:10:13+00:00
9,-67.0,110.0,2021-05-06 21:10:13+00:00
10,89.0,110.0,2021-05-06 21:10:13+00:00
11,74.0,110.0,2021-05-06 21:10:13+00:00
12,81.0,110.0,2021-05-06 21:10:13+00:00
13,79.0,110.0,2021-05-06 21:10:13+00:00
14,90.0,110.0,2021-05-06 21:10:13+00:00
15,95.0,110.0,2021-05-06 21:10:13+00:00
16,-93.0,110.0,2021-05-06 21:10:13+00:00
17,-15.0,110.0,2021-05-06 21:10:13+00:00
18,68.0,111.0,2021-05-06 21:10:13+00:00
19,116.0,111.0,2021-05-06 21:10:13+00:00
20,-108.0,111.0,2021-05-06 21:10:13+00:00
21,-74.0,111.0,2021-05-06 21:10:13+00:00
22,-48.0,111.0,2021-05-06 21:10:13+00:00
23,-92.0,111.0,2021-05-06 21:10:13+00:00
24,89.0,125.0,2021-05-06 21:10:13+00:00
0,54.0,111.0,2021-05-06 21:10:14+00:00
1,-126.0,111.0,2021-05-06 21:10:14+00:00
2,38.0,112.0,2021-05-06 21:10:14+00:00
3,28.0,113.0,2021-05-06 21:10:14+00:00
4,26.0,114.0,2021-05-06 21:10:14+00:00
5,13.0,115.0,2021-05-06 21:10:14+00:00
6,-65.0,115.0,2021-05-06 21:10:14+00:00
7,51.0,116.0,2021-05-06 21:10:14+00:00
8,76.0,116.0,2021-05-06 21:10:14+00:00
9,63.0,116.0,2021-05-06 21:10:14+00:00
10,68.0,116.0,2021-05-06 21:10:14+00:00
11,89.0,116.0,2021-05-06 21:10:14+00:00
12,83.0,116.0,2021-05-06 21:10:14+00:00
13,75.0,116.0,2021-05-06 21:10:14+00:00
14,24.0,116.0,2021-05-06 21:10:14+00:00
15,-86.0,115.0,2021-05-06 21:10:14+00:00
16,33.0,115.0,2021-05-06 21:10:14+00:00
17,-61.0,114.0,2021-05-06 21:10:14+00:00
18,-110.0,114.0,2021-05-06 21:10:14+00:00
19,-108.0,114.0,2021-05-06 21:10:14+00:00
20,-61.0,114.0,2021-05-06 21:10:14+00:00
21,-3.0,114.0,2021-05-06 21:10:14+00:00
22,64.0,115.0,2021-05-06 21:10:14+00:00
23,-119.0,115.0,2021-05-06 21:10:14+00:00
24,-47.0,-31.0,2021-05-06 21:10:14+00:00
0,15.0,116.0,2021-05-06 21:10:15+00:00
1,66.0,116.0,2021-05-06 21:10:15+00:00
2,109.0,116.0,2021-05-06 21:10:15+00:00
3,-90.0,116.0,2021-05-06 21:10:15+00:00
4,-33.0,116.0,2021-05-06 21:10:15+00:00
5,-27.0,116.0,2021-05-06 21:10:15+00:00
6,-91.0,116.0,2021-05-06 21:10:15+00:00
7,118.0,116.0,2021-05-06 21:10:15+00:00
8,110.0,116.0,2021-05-06 21:10:15+00:00
9,125.0,116.0,2021-05-06 21:10:15+00:00
10,-109.0,116.0,2021-05-06 21:10:15+00:00
11,-87.0,116.0,2021-05-06 21:10:15+00:00
12,-53.0,116.0,2021-05-06 21:10:15+00:00
13,-16.0,116.0,2021-05-06 21:10:15+00:00
14,19.0,117.0,2021-05-06 21:10:15+00:00
15,79.0,117.0,2021-05-06 21:10:15+00:00
16,-110.0,117.0,2021-05-06 21:10:15+00:00
17,-34.0,117.0,2021-05-06 21:10:15+00:00
18,36.0,118.0,2021-05-06 21:10:15+00:00
19,92.0,118.0,2021-05-06 21:10:15+00:00
20,120.0,118.0,2021-05-06 21:10:15+00:00
21,62.0,118.0,2021-05-06 21:10:15+00:00
22,-47.0,117.0,2021-05-06 21:10:15+00:00
23,107.0,117.0,2021-05-06 21:10:15+00:00
24,55.0,-77.0,2021-05-06 21:10:15+00:00
0,52.0,117.0,2021-05-06 21:10:16+00:00
1,79.0,117.0,2021-05-06 21:10:16+00:00
2,103.0,117.0,2021-05-06 21:10:16+00:00
3,110.0,117.0,2021-05-06 21:10:16+00:00
4,109.0,117.0,2021-05-06 21:10:16+00:00
5,113.0,117.0,2021-05-06 21:10:16+00:00
6,-126.0,117.0,2021-05-06 21:10:16+00:00
7,-102.0,117.0,2021-05-06 21:10:16+00:00
8,-66.0,117.0,2021-05-06 21:10:16+00:00
9,-9.0,117.0,2021-05-06 21:10:16+00:00
10,52.0,118.0,2021-05-06 21:10:16+00:00
11,60.0,118.0,2021-05-06 21:10:16+00:00
12,-26.0,117.0,2021-05-06 21:10:16+00:00
13,-127.0,117.0,2021-05-06 21:10:16+00:00
14,68.0,117.0,2021-05-06 21:10:16+00:00
15,35.0,117.0,2021-05-06 21:10:16+00:00
16,31.0,117.0,2021-05-06 21:10:16+00:00
17,45.0,117.0,2021-05-06 21:10:16+00:00
18,73.0,117.0,2021-05-06 21:10:16+00:00
19,111.0,117.0,2021-05-06 21:10:16+00:00
20,-115.0,117.0,2021-05-06 21:10:16+00:00
21,-85.0,117.0,2021-05-06 21:10:16+00:00
22,-54.0,117.0,2021-05-06 21:10:16+00:00
23,-21.0,117.0,2021-05-06 21:10:16+00:00
24,20.0,105.0,2021-05-06 21:10:16+00:00
0,74.0,118.0,2021-05-06 21:10:17+00:00
1,102.0,118.0,2021-05-06 21:10:17+00:00
2,54.0,118.0,2021-05-06 21:10:17+00:00
3,-23.0,117.0,2021-05-06 21:10:17+00:00
4,-56.0,117.0,2021-05-06 21:10:17+00:00
5,-65.0,117.0,2021-05-06 21:10:17+00:00
6,-59.0,117.0,2021-05-06 21:10:17+00:00
7,-31.0,117.0,2021-05-06 21:10:17+00:00
8,14.0,118.0,2021-05-06 21:10:17+00:00
9,55.0,118.0,2021-05-06 21:10:17+00:00
10,103.0,118.0,2021-05-06 21:10:17+00:00
11,-90.0,118.0,2021-05-06 21:10:17+00:00
12,-14.0,118.0,2021-05-06 21:10:17+00:00
13,60.0,119.0,2021-05-06 21:10:17+00:00
14,-127.0,119.0,2021-05-06 21:10:17+00:00
15,-66.0,119.0,2021-05-06 21:10:17+00:00
16,-42.0,119.0,2021-05-06 21:10:17+00:00
17,-102.0,119.0,2021-05-06 21:10:17+00:00
18,62.0,119.0,2021-05-06 21:10:17+00:00
19,-15.0,118.0,2021-05-06 21:10:17+00:00
20,-38.0,118.0,2021-05-06 21:10:17+00:00
21,-15.0,118.0,2021-05-06 21:10:17+00:00
22,24.0,119.0,2021-05-06 21:10:17+00:00
23,57.0,119.0,2021-05-06 21:10:17+00:00
24,67.0,-15.0,2021-05-06 21:10:17+00:00
0,68.0,119.0,2021-05-06 21:10:18+00:00
1,76.0,119.0,2021-05-06 21:10:18+00:00
2,96.0,119.0,2021-05-06 21:10:18+00:00
3,115.0,119.0,2021-05-06 21:10:18+00:00
4,-110.0,119.0,2021-05-06 21:10:18+00:00
5,-64.0,119.0,2021-05-06 21:10:18+00:00
6,-77.0,119.0,2021-05-06 21:10:18+00:00
7,68.0,119.0,2021-05-06 21:10:18+00:00
8,-101.0,118.0,2021-05-06 21:10:18+00:00
9,47.0,118.0,2021-05-06 21:10:18+00:00
10,17.0,118.0,2021-05-06 21:10:18+00:00
11,48.0,118.0,2021-05-06 21:10:18+00:00
12,97.0,118.0,2021-05-06 21:10:18+00:00
13,-110.0,118.0,2021-05-06 21:10:18+00:00
14,-50.0,118.0,2021-05-06 21:10:18+00:00
15,3.0,119.0,2021-05-06 21:10:18+00:00
16,33.0,119.0,2021-05-06 21:10:18+00:00
17,52.0,119.0,2021-05-06 21:10:18+00:00
18,67.0,119.0,2021-05-06 21:10:18+00:00
19,78.0,119.0,2021-05-06 21:10:18+00:00
20,84.0,119.0,2021-05-06 21:10:18+00:00
21,3.0,119.0,2021-05-06 21:10:18+00:00
22,86.0,118.0,2021-05-06 21:10:18+00:00
23,-54.0,117.0,2021-05-06 21:10:18+00:00
24,-119.0,-92.0,2021-05-06 21:10:18+00:00
0,-124.0,117.0,2021-05-06 21:10:19+00:00
1,-79.0,117.0,2021-05-06 21:10:19+00:00
2,-25.0,117.0,2021-05-06 21:10:19+00:00
3,28.0,118.0,2021-05-06 21:10:19+00:00
4,84.0,118.0,2021-05-06 21:10:19+00:00
5,125.0,118.0,2021-05-06 21:10:19+00:00
6,-90.0,118.0,2021-05-06 21:10:19+00:00
7,-43.0,118.0,2021-05-06 21:10:19+00:00
8,-6.0,118.0,2021-05-06 21:10:19+00:00
9,28.0,119.0,2021-05-06 21:10:19+00:00
10,22.0,119.0,2021-05-06 21:10:19+00:00
11,-93.0,118.0,2021-05-06 21:10:19+00:00
12,5.0,118.0,2021-05-06 21:10:19+00:00
13,-84.0,117.0,2021-05-06 21:10:19+00:00
14,-117.0,117.0,2021-05-06 21:10:19+00:00
15,-103.0,117.0,2021-05-06 21:10:19+00:00
16,-68.0,117.0,2021-05-06 21:10:19+00:00
17,-32.0,117.0,2021-05-06 21:10:19+00:00
18,-1.0,117.0,2021-05-06 21:10:19+00:00
19,25.0,118.0,2021-05-06 21:10:19+00:00
20,37.0,118.0,2021-05-06 21:10:19+00:00
21,48.0,118.0,2021-05-06 21:10:19+00:00
22,51.0,118.0,2021-05-06 21:10:19+00:00
23,55.0,118.0,2021-05-06 21:10:19+00:00
24,57.0,2.0,2021-05-06 21:10:19+00:00
0,-1.0,117.0,2021-05-06 21:10:20+00:00
1,64.0,117.0,2021-05-06 21:10:20+00:00
2,101.0,116.0,2021-05-06 21:10:20+00:00
3,-64.0,115.0,2021-05-06 21:10:20+00:00
4,97.0,115.0,2021-05-06 21:10:20+00:00
5,45.0,115.0,2021-05-06 21:10:20+00:00
6,13.0,115.0,2021-05-06 21:10:20+00:00
7,-9.0,114.0,2021-05-06 21:10:20+00:00
8,-33.0,114.0,2021-05-06 21:10:20+00:00
9,-51.0,114.0,2021-05-06 21:10:20+00:00
10,-56.0,114.0,2021-05-06 21:10:20+00:00
11,-38.0,114.0,2021-05-06 21:10:20+00:00
12,2.0,115.0,2021-05-06 21:10:20+00:00
13,62.0,115.0,2021-05-06 21:10:20+00:00
14,122.0,115.0,2021-05-06 21:10:20+00:00
15,85.0,115.0,2021-05-06 21:10:20+00:00
16,-62.0,114.0,2021-05-06 21:10:20+00:00
17,64.0,114.0,2021-05-06 21:10:20+00:00
18,-15.0,113.0,2021-05-06 21:10:20+00:00
19,-47.0,113.0,2021-05-06 21:10:20+00:00
20,-39.0,113.0,2021-05-06 21:10:20+00:00
21,-24.0,113.0,2021-05-06 21:10:20+00:00
22,-8.0,113.0,2021-05-06 21:10:20+00:00
23,5.0,114.0,2021-05-06 21:10:20+00:00
24,28.0,-47.0,2021-05-06 21:10:20+00:00
0,59.0,114.0,2021-05-06 21:10:21+00:00
1,84.0,114.0,2021-05-06 21:10:21+00:00
2,121.0,114.0,2021-05-06 21:10:21+00:00
3,-83.0,114.0,2021-05-06 21:10:21+00:00
4,-22.0,114.0,2021-05-06 21:10:21+00:00
5,-47.0,114.0,2021-05-06 21:10:21+00:00
6,74.0,114.0,2021-05-06 21:10:21+00:00
7,-32.0,113.0,2021-05-06 21:10:21+00:00
8,-61.0,113.0,2021-05-06 21:10:21+00:00
9,-34.0,113.0,2021-05-06 21:10:21+00:00
10,25.0,114.0,2021-05-06 21:10:21+00:00
11,80.0,114.0,2021-05-06 21:10:21+00:00
12,124.0,114.0,2021-05-06 21:10:21+00:00
13,-90.0,114.0,2021-05-06 21:10:21+00:00
14,-44.0,114.0,2021-05-06 21:10:21+00:00
15,12.0,115.0,2021-05-06 21:10:21+00:00
16,93.0,115.0,2021-05-06 21:10:21+00:00
17,-67.0,115.0,2021-05-06 21:10:21+00:00
18,40.0,116.0,2021-05-06 21:10:21+00:00
19,-117.0,116.0,2021-05-06 21:10:21+00:00
20,-69.0,116.0,2021-05-06 21:10:21+00:00
21,110.0,116.0,2021-05-06 21:10:21+00:00
22,-23.0,115.0,2021-05-06 21:10:21+00:00
23,-103.0,115.0,2021-05-06 21:10:21+00:00
24,124.0,121.0,2021-05-06 21:10:21+00:00
0,-107.0,115.0,2021-05-06 21:10:22+00:00
1,-48.0,115.0,2021-05-06 21:10:22+00:00
2,17.0,116.0,2021-05-06 21:10:22+00:00
3,69.0,116.0,2021-05-06 21:10:22+00:00
4,110.0,116.0,2021-05-06 21:10:22+00:00
5,-106.0,116.0,2021-05-06 21:10:22+00:00
6,-47.0,116.0,2021-05-06 21:10:22+00:00
7,-17.0,116.0,2021-05-06 21:10:22+00:00
8,-10.0,116.0,2021-05-06 21:10:22+00:00
9,11.0,117.0,2021-05-06 21:10:22+00:00
10,89.0,117.0,2021-05-06 21:10:22+00:00
11,115.0,117.0,2021-05-06 21:10:22+00:00
12,-32.0,116.0,2021-05-06 21:10:22+00:00
13,-9.0,115.0,2021-05-06 21:10:22+00:00
14,64.0,115.0,2021-05-06 21:10:22+00:00
15,-65.0,114.0,2021-05-06 21:10:22+00:00
16,100.0,114.0,2021-05-06 21:10:22+00:00
17,44.0,114.0,2021-05-06 21:10:22+00:00
18,42.0,114.0,2021-05-06 21:10:22+00:00
19,77.0,114.0,2021-05-06 21:10:22+00:00
20,-90.0,114.0,2021-05-06 21:10:22+00:00
21,30.0,115.0,2021-05-06 21:10:22+00:00
22,-103.0,115.0,2021-05-06 21:10:22+00:00
23,36.0,116.0,2021-05-06 21:10:22+00:00
24,-75.0,85.0,2021-05-06 21:10:22+00:00
0,52.0,117.0,2021-05-06 21:10:23+00:00
1,-111.0,117.0,2021-05-06 21:10:23+00:00
2,-124.0,117.0,2021-05-06 21:10:23+00:00
3,58.0,117.0,2021-05-06 21:10:23+00:00
4,22.0,117.0,2021-05-06 21:10:23+00:00
5,46.0,117.0,2021-05-06 21:10:23+00:00
6,110.0,117.0,2021-05-06 21:10:23+00:00
7,-86.0,117.0,2021-05-06 21:10:23+00:00
8,-41.0,117.0,2021-05-06 21:10:23+00:00
9,-10.0,117.0,2021-05-06 21:10:23+00:00
10,1.0,118.0,2021-05-06 21:10:23+00:00
11,5.0,118.0,2021-05-06 21:10:23+00:00
12,20.0,118.0,2021-05-06 21:10:23+00:00
13,50.0,118.0,2021-05-06 21:10:23+00:00
14,93.0,118.0,2021-05-06 21:10:23+00:00
15,-106.0,118.0,2021-05-06 21:10:23+00:00
16,-51.0,118.0,2021-05-06 21:10:23+00:00
17,-55.0,118.0,2021-05-06 21:10:23+00:00
18,60.0,118.0,2021-05-06 21:10:23+00:00
19,-89.0,117.0,2021-05-06 21:10:23+00:00
20,84.0,117.0,2021-05-06 21:10:23+00:00
21,60.0,117.0,2021-05-06 21:10:23+00:00
22,71.0,117.0,2021-05-06 21:10:23+00:00
23,105.0,117.0,2021-05-06 21:10:23+00:00
24,-111.0,91.0,2021-05-06 21:10:23+00:00
0,-64.0,117.0,2021-05-06 21:10:24+00:00
1,-10.0,117.0,2021-05-06 21:10:24+00:00
2,54.0,118.0,2021-05-06 21:10:24+00:00
3,119.0,118.0,2021-05-06 21:10:24+00:00
4,-74.0,118.0,2021-05-06 21:10:24+00:00
5,-14.0,118.0,2021-05-06 21:10:24+00:00
6,43.0,119.0,2021-05-06 21:10:24+00:00
7,106.0,119.0,2021-05-06 21:10:24+00:00
8,118.0,119.0,2021-05-06 21:10:24+00:00
9,31.0,119.0,2021-05-06 21:10:24+00:00
10,-65.0,118.0,2021-05-06 21:10:24+00:00
11,-115.0,118.0,2021-05-06 21:10:24+00:00
12,-125.0,118.0,2021-05-06 21:10:24+00:00
13,-107.0,118.0,2021-05-06 21:10:24+00:00
14,-75.0,118.0,2021-05-06 21:10:24+00:00
15,-32.0,118.0,2021-05-06 21:10:24+00:00
16,19.0,119.0,2021-05-06 21:10:24+00:00
17,73.0,119.0,2021-05-06 21:10:24+00:00
18,121.0,119.0,2021-05-06 21:10:24+00:00
19,-85.0,119.0,2021-05-06 21:10:24+00:00
20,-28.0,119.0,2021-05-06 21:10:24+00:00
21,36.0,120.0,2021-05-06 21:10:24+00:00
22,100.0,120.0,2021-05-06 21:10:24+00:00
23,-106.0,120.0,2021-05-06 21:10:24+00:00
24,125.0,111.0,2021-05-06 21:10:24+00:00
0,36.0,120.0,2021-05-06 21:10:25+00:00
1,-24.0,119.0,2021-05-06 21:10:25+00:00
2,-51.0,119.0,2021-05-06 21:10:25+00:00
3,-58.0,119.0,2021-05-06 21:10:25+00:00
4,-46.0,119.0,2021-05-06 21:10:25+00:00
5,-27.0,119.0,2021-05-06 21:10:25+00:00
6,-12.0,119.0,2021-05-06 21:10:25+00:00
7,11.0,120.0,2021-05-06 21:10:25+00:00
8,49.0,120.0,2021-05-06 21:10:25+00:00
9,99.0,120.0,2021-05-06 21:10:25+00:00
10,-95.0,120.0,2021-05-06 21:10:25+00:00
11,-36.0,120.0,2021-05-06 21:10:25+00:00
12,12.0,121.0,2021-05-06 21:10:25+00:00
13,56.0,121.0,2021-05-06 21:10:25+00:00
14,52.0,121.0,2021-05-06 21:10:25+00:00
15,-58.0,120.0,2021-05-06 21:10:25+00:00
16,87.0,120.0,2021-05-06 21:10:25+00:00
17,34.0,120.0,2021-05-06 21:10:25+00:00
18,35.0,120.0,2021-05-06 21:10:25+00:00
19,73.0,120.0,2021-05-06 21:10:25+00:00
20,121.0,120.0,2021-05-06 21:10:25+00:00
21,-95.0,120.0,2021-05-06 21:10:25+00:00
22,-59.0,120.0,2021-05-06 21:10:25+00:00
23,-11.0,120.0,2021-05-06 21:10:25+00:00
24,42.0,-23.0,2021-05-06 21:10:25+00:00
0,106.0,121.0,2021-05-06 21:10:26+00:00
1,-81.0,121.0,2021-05-06 21:10:26+00:00
2,-4.0,121.0,2021-05-06 21:10:26+00:00
3,95.0,122.0,2021-05-06 21:10:26+00:00
4,-97.0,122.0,2021-05-06 21:10:26+00:00
5,126.0,122.0,2021-05-06 21:10:26+00:00
6,30.0,122.0,2021-05-06 21:10:26+00:00
7,-73.0,121.0,2021-05-06 21:10:26+00:00
8,118.0,121.0,2021-05-06 21:10:26+00:00
9,95.0,121.0,2021-05-06 21:10:26+00:00
10,103.0,121.0,2021-05-06 21:10:26+00:00
11,-112.0,121.0,2021-05-06 21:10:26+00:00
12,-52.0,121.0,2021-05-06 21:10:26+00:00
13,12.0,122.0,2021-05-06 21:10:26+00:00
14,65.0,122.0,2021-05-06 21:10:26+00:00
15,119.0,122.0,2021-05-06 21:10:26+00:00
16,-82.0,122.0,2021-05-06 21:10:26+00:00
17,-25.0,122.0,2021-05-06 21:10:26+00:00
18,32.0,123.0,2021-05-06 21:10:26+00:00
19,107.0,123.0,2021-05-06 21:10:26+00:00
20,-115.0,123.0,2021-05-06 21:10:26+00:00
21,72.0,123.0,2021-05-06 21:10:26+00:00
22,-16.0,122.0,2021-05-06 21:10:26+00:00
23,-88.0,122.0,2021-05-06 21:10:26+00:00
24,-119.0,104.0,2021-05-06 21:10:26+00:00
0,-113.0,122.0,2021-05-06 21:10:27+00:00
1,-89.0,122.0,2021-05-06 21:10:27+00:00
2,-64.0,122.0,2021-05-06 21:10:27+00:00
3,-33.0,122.0,2021-05-06 21:10:27+00:00
4,12.0,123.0,2021-05-06 21:10:27+00:00
5,72.0,123.0,2021-05-06 21:10:27+00:00
6,121.0,123.0,2021-05-06 21:10:27+00:00
7,-93.0,123.0,2021-05-06 21:10:27+00:00
8,-45.0,123.0,2021-05-06 21:10:27+00:00
9,11.0,124.0,2021-05-06 21:10:27+00:00
10,53.0,124.0,2021-05-06 21:10:27+00:00
11,-8.0,123.0,2021-05-06 21:10:27+00:00
12,-101.0,123.0,2021-05-06 21:10:27+00:00
13,100.0,123.0,2021-05-06 21:10:27+00:00
14,87.0,123.0,2021-05-06 21:10:27+00:00
15,99.0,123.0,2021-05-06 21:10:27+00:00
16,115.0,123.0,2021-05-06 21:10:27+00:00
17,-116.0,123.0,2021-05-06 21:10:27+00:00
18,-95.0,123.0,2021-05-06 21:10:27+00:00
19,-75.0,123.0,2021-05-06 21:10:27+00:00
20,-48.0,123.0,2021-05-06 21:10:27+00:00
21,-1.0,123.0,2021-05-06 21:10:27+00:00
22,64.0,124.0,2021-05-06 21:10:27+00:00
23,-127.0,124.0,2021-05-06 21:10:27+00:00
24,-73.0,82.0,2021-05-06 21:10:27+00:00
0,-67.0,124.0,2021-05-06 21:10:28+00:00
1,77.0,124.0,2021-05-06 21:10:28+00:00
2,-62.0,123.0,2021-05-06 21:10:28+00:00
3,77.0,123.0,2021-05-06 21:10:28+00:00
4,6.0,123.0,2021-05-06 21:10:28+00:00
5,-7.0,122.0,2021-05-06 21:10:28+00:00
6,8.0,123.0,2021-05-06 21:10:28+00:00
7,26.0,123.0,2021-05-06 21:10:28+00:00
8,26.0,123.0,2021-05-06 21:10:28+00:00
9,17.0,123.0,2021-05-06 21:10:28+00:00
10,21.0,123.0,2021-05-06 21:10:28+00:00
11,43.0,123.0,2021-05-06 21:10:28+00:00
12,74.0,123.0,2021-05-06 21:10:28+00:00
13,115.0,123.0,2021-05-06 21:10:28+00:00
14,-85.0,123.0,2021-05-06 21:10:28+00:00
15,-82.0,123.0,2021-05-06 21:10:28+00:00
16,72.0,123.0,2021-05-06 21:10:28+00:00
17,-68.0,122.0,2021-05-06 21:10:28+00:00
18,75.0,122.0,2021-05-06 21:10:28+00:00
19,12.0,122.0,2021-05-06 21:10:28+00:00
20,-15.0,121.0,2021-05-06 21:10:28+00:00
21,-16.0,121.0,2021-05-06 21:10:28+00:00
22,-7.0,121.0,2021-05-06 21:10:28+00:00
23,22.0,122.0,2021-05-06 21:10:28+00:00
24,55.0,-31.0,2021-05-06 21:10:28+00:00
0,92.0,122.0,2021-05-06 21:10:29+00:00
1,-126.0,122.0,2021-05-06 21:10:29+00:00
2,-94.0,122.0,2021-05-06 21:10:29+00:00
3,-59.0,122.0,2021-05-06 21:10:29+00:00
4,-22.0,122.0,2021-05-06 21:10:29+00:00
5,-58.0,122.0,2021-05-06 21:10:29+00:00
6,59.0,122.0,2021-05-06 21:10:29+00:00
7,-77.0,121.0,2021-05-06 21:10:29+00:00
8,118.0,121.0,2021-05-06 21:10:29+00:00
9,109.0,121.0,2021-05-06 21:10:29+00:00
10,112.0,121.0,2021-05-06 21:10:29+00:00
11,119.0,121.0,2021-05-06 21:10:29+00:00
12,125.0,121.0,2021-05-06 21:10:29+00:00
13,-123.0,121.0,2021-05-06 21:10:29+00:00
14,-108.0,121.0,2021-05-06 21:10:29+00:00
15,-76.0,121.0,2021-05-06 21:10:29+00:00
16,-25.0,121.0,2021-05-06 21:10:29+00:00
17,47.0,122.0,2021-05-06 21:10:29+00:00
18,113.0,122.0,2021-05-06 21:10:29+00:00
19,-95.0,122.0,2021-05-06 21:10:29+00:00
20,-122.0,122.0,2021-05-06 21:10:29+00:00
21,4.0,122.0,2021-05-06 21:10:29+00:00
22,114.0,121.0,2021-05-06 21:10:29+00:00
23,26.0,121.0,2021-05-06 21:10:29+00:00
24,2.0,-64.0,2021-05-06 21:10:29+00:00
0,30.0,121.0,2021-05-06 21:10:30+00:00
1,82.0,121.0,2021-05-06 21:10:30+00:00
2,-126.0,121.0,2021-05-06 21:10:30+00:00
3,-103.0,121.0,2021-05-06 21:10:30+00:00
4,-93.0,121.0,2021-05-06 21:10:30+00:00
5,-73.0,121.0,2021-05-06 21:10:30+00:00
6,-40.0,121.0,2021-05-06 21:10:30+00:00
7,-4.0,121.0,2021-05-06 21:10:30+00:00
8,46.0,122.0,2021-05-06 21:10:30+00:00
9,97.0,122.0,2021-05-06 21:10:30+00:00
10,59.0,122.0,2021-05-06 21:10:30+00:00
11,-66.0,121.0,2021-05-06 21:10:30+00:00
12,68.0,121.0,2021-05-06 21:10:30+00:00
13,-7.0,120.0,2021-05-06 21:10:30+00:00
14,-32.0,120.0,2021-05-06 21:10:30+00:00
15,-24.0,120.0,2021-05-06 21:10:30+00:00
16,-8.0,120.0,2021-05-06 21:10:30+00:00
17,4.0,121.0,2021-05-06 21:10:30+00:00
18,32.0,121.0,2021-05-06 21:10:30+00:00
19,79.0,121.0,2021-05-06 21:10:30+00:00
20,122.0,121.0,2021-05-06 21:10:30+00:00
21,-100.0,121.0,2021-05-06 21:10:30+00:00
22,-63.0,121.0,2021-05-06 21:10:30+00:00
23,-21.0,121.0,2021-05-06 21:10:30+00:00
24,3.0,-14.0,2021-05-06 21:10:30+00:00
0,-74.0,121.0,2021-05-06 21:10:31+00:00
1,24.0,121.0,2021-05-06 21:10:31+00:00
2,-91.0,120.0,2021-05-06 21:10:31+00:00
3,116.0,120.0,2021-05-06 21:10:31+00:00
4,108.0,120.0,2021-05-06 21:10:31+00:00
5,113.0,120.0,2021-05-06 21:10:31+00:00
6,121.0,120.0,2021-05-06 21:10:31+00:00
7,127.0,120.0,2021-05-06 21:10:31+00:00
8,-126.0,120.0,2021-05-06 21:10:31+00:00
9,-111.0,120.0,2021-05-06 21:10:31+00:00
10,-80.0,120.0,2021-05-06 21:10:31+00:00
11,-22.0,120.0,2021-05-06 21:10:31+00:00
12,46.0,121.0,2021-05-06 21:10:31+00:00
13,112.0,121.0,2021-05-06 21:10:31+00:00
14,-94.0,121.0,2021-05-06 21:10:31+00:00
15,-84.0,121.0,2021-05-06 21:10:31+00:00
16,66.0,121.0,2021-05-06 21:10:31+00:00
17,-107.0,120.0,2021-05-06 21:10:31+00:00
18,24.0,120.0,2021-05-06 21:10:31+00:00
19,-36.0,119.0,2021-05-06 21:10:31+00:00
20,-34.0,119.0,2021-05-06 21:10:31+00:00
21,6.0,120.0,2021-05-06 21:10:31+00:00
22,41.0,120.0,2021-05-06 21:10:31+00:00
23,53.0,120.0,2021-05-06 21:10:31+00:00
24,55.0,3.0,2021-05-06 21:10:31+00:00
0,71.0,120.0,2021-05-06 21:10:32+00:00
1,99.0,120.0,2021-05-06 21:10:32+00:00
2,-120.0,120.0,2021-05-06 21:10:32+00:00
3,-65.0,120.0,2021-05-06 21:10:32+00:00
4,2.0,121.0,2021-05-06 21:10:32+00:00
5,82.0,121.0,2021-05-06 21:10:32+00:00
6,-124.0,121.0,2021-05-06 21:10:32+00:00
7,54.0,121.0,2021-05-06 21:10:32+00:00
8,-122.0,120.0,2021-05-06 21:10:32+00:00
9,-2.0,119.0,2021-05-06 21:10:32+00:00
10,-74.0,119.0,2021-05-06 21:10:32+00:00
11,-92.0,119.0,2021-05-06 21:10:32+00:00
12,-72.0,119.0,2021-05-06 21:10:32+00:00
13,-37.0,119.0,2021-05-06 21:10:32+00:00
14,-9.0,119.0,2021-05-06 21:10:32+00:00
15,-18.0,119.0,2021-05-06 21:10:32+00:00
16,-120.0,119.0,2021-05-06 21:10:32+00:00
17,-27.0,117.0,2021-05-06 21:10:32+00:00
18,78.0,115.0,2021-05-06 21:10:32+00:00
19,64.0,114.0,2021-05-06 21:10:32+00:00
20,67.0,113.0,2021-05-06 21:10:32+00:00
21,85.0,112.0,2021-05-06 21:10:32+00:00
22,80.0,111.0,2021-05-06 21:10:32+00:00
23,30.0,110.0,2021-05-06 21:10:32+00:00
24,-65.0,70.0,2021-05-06 21:10:32+00:00
0,-124.0,107.0,2021-05-06 21:10:33+00:00
1,-109.0,106.0,2021-05-06 21:10:33+00:00
2,-37.0,105.0,2021-05-06 21:10:33+00:00
3,99.0,105.0,2021-05-06 21:10:33+00:00
4,10.0,105.0,2021-05-06 21:10:33+00:00
5,-69.0,104.0,2021-05-06 21:10:33+00:00
6,97.0,104.0,2021-05-06 21:10:33+00:00
7,-8.0,103.0,2021-05-06 21:10:33+00:00
8,-95.0,103.0,2021-05-06 21:10:33+00:00
9,79.0,103.0,2021-05-06 21:10:33+00:00
10,10.0,103.0,2021-05-06 21:10:33+00:00
11,-121.0,102.0,2021-05-06 21:10:33+00:00
12,38.0,102.0,2021-05-06 21:10:33+00:00
13,18.0,102.0,2021-05-06 21:10:33+00:00
14,20.0,102.0,2021-05-06 21:10:33+00:00
15,-63.0,101.0,2021-05-06 21:10:33+00:00
16,64.0,101.0,2021-05-06 21:10:33+00:00
17,-10.0,100.0,2021-05-06 21:10:33+00:00
18,-2.0,100.0,2021-05-06 21:10:33+00:00
19,-2.0,100.0,2021-05-06 21:10:33+00:00
20,38.0,101.0,2021-05-06 21:10:33+00:00
21,78.0,101.0,2021-05-06 21:10:33+00:00
22,108.0,101.0,2021-05-06 21:10:33+00:00
23,85.0,101.0,2021-05-06 21:10:33+00:00
24,-31.0,12.0,2021-05-06 21:10:33+00:00
0,-125.0,100.0,2021-05-06 21:10:34+00:00
1,79.0,100.0,2021-05-06 21:10:34+00:00
2,48.0,100.0,2021-05-06 21:10:34+00:00
3,34.0,100.0,2021-05-06 21:10:34+00:00
4,93.0,100.0,2021-05-06 21:10:34+00:00
5,-27.0,100.0,2021-05-06 21:10:34+00:00
6,-29.0,100.0,2021-05-06 21:10:34+00:00
7,-66.0,99.0,2021-05-06 21:10:34+00:00
8,-66.0,98.0,2021-05-06 21:10:34+00:00
9,83.0,98.0,2021-05-06 21:10:34+00:00
10,120.0,98.0,2021-05-06 21:10:34+00:00
11,-18.0,98.0,2021-05-06 21:10:34+00:00
12,106.0,99.0,2021-05-06 21:10:34+00:00
13,-14.0,99.0,2021-05-06 21:10:34+00:00
14,-114.0,100.0,2021-05-06 21:10:34+00:00
15,61.0,101.0,2021-05-06 21:10:34+00:00
16,121.0,101.0,2021-05-06 21:10:34+00:00
17,-63.0,101.0,2021-05-06 21:10:34+00:00
18,42.0,102.0,2021-05-06 21:10:34+00:00
19,-59.0,102.0,2021-05-06 21:10:34+00:00
20,-87.0,103.0,2021-05-06 21:10:34+00:00
21,45.0,104.0,2021-05-06 21:10:34+00:00
22,27.0,104.0,2021-05-06 21:10:34+00:00
23,11.0,104.0,2021-05-06 21:10:34+00:00
24,57.0,-109.0,2021-05-06 21:10:34+00:00
0,77.0,104.0,2021-05-06 21:10:35+00:00
1,-70.0,104.0,2021-05-06 21:10:35+00:00
2,-99.0,105.0,2021-05-06 21:10:35+00:00
3,-109.0,106.0,2021-05-06 21:10:35+00:00
4,93.0,107.0,2021-05-06 21:10:35+00:00
5,-13.0,107.0,2021-05-06 21:10:35+00:00
6,108.0,108.0,2021-05-06 21:10:35+00:00
7,-76.0,108.0,2021-05-06 21:10:35+00:00
8,-18.0,108.0,2021-05-06 21:10:35+00:00
9,23.0,109.0,2021-05-06 21:10:35+00:00
10,64.0,109.0,2021-05-06 21:10:35+00:00
11,-117.0,109.0,2021-05-06 21:10:35+00:00
12,-36.0,109.0,2021-05-06 21:10:35+00:00
13,-35.0,109.0,2021-05-06 21:10:35+00:00
14,-78.0,109.0,2021-05-06 21:10:35+00:00
15,-106.0,109.0,2021-05-06 21:10:35+00:00
16,-116.0,109.0,2021-05-06 21:10:35+00:00
17,-97.0,109.0,2021-05-06 21:10:35+00:00
18,-10.0,109.0,2021-05-06 21:10:35+00:00
19,122.0,110.0,2021-05-06 21:10:35+00:00
20,13.0,111.0,2021-05-06 21:10:35+00:00
21,-107.0,111.0,2021-05-06 21:10:35+00:00
22,28.0,112.0,2021-05-06 21:10:35+00:00
23,-92.0,112.0,2021-05-06 21:10:35+00:00
24,24.0,-35.0,2021-05-06 21:10:35+00:00
0,122.0,113.0,2021-05-06 21:10:36+00:00
1,-56.0,113.0,2021-05-06 21:10:36+00:00
2,21.0,114.0,2021-05-06 21:10:36+00:00
3,105.0,114.0,2021-05-06 21:10:36+00:00
4,-91.0,114.0,2021-05-06 21:10:36+00:00
5,-51.0,114.0,2021-05-06 21:10:36+00:00
6,-71.0,114.0,2021-05-06 21:10:36+00:00
7,116.0,114.0,2021-05-06 21:10:36+00:00
8,50.0,114.0,2021-05-06 21:10:36+00:00
9,8.0,114.0,2021-05-06 21:10:36+00:00
10,-11.0,113.0,2021-05-06 21:10:36+00:00
11,-1.0,113.0,2021-05-06 21:10:36+00:00
12,19.0,114.0,2021-05-06 21:10:36+00:00
13,51.0,114.0,2021-05-06 21:10:36+00:00
14,82.0,114.0,2021-05-06 21:10:36+00:00
15,122.0,114.0,2021-05-06 21:10:36+00:00
16,-75.0,114.0,2021-05-06 21:10:36+00:00
17,-13.0,114.0,2021-05-06 21:10:36+00:00
18,38.0,115.0,2021-05-06 21:10:36+00:00
19,90.0,115.0,2021-05-06 21:10:36+00:00
20,-110.0,115.0,2021-05-06 21:10:36+00:00
21,-48.0,115.0,2021-05-06 21:10:36+00:00
22,12.0,116.0,2021-05-06 21:10:36+00:00
23,70.0,116.0,2021-05-06 21:10:36+00:00
24,92.0,-80.0,2021-05-06 21:10:36+00:00
0,47.0,116.0,2021-05-06 21:10:37+00:00
1,-6.0,115.0,2021-05-06 21:10:37+00:00
2,-34.0,115.0,2021-05-06 21:10:37+00:00
3,-48.0,115.0,2021-05-06 21:10:37+00:00
4,-44.0,115.0,2021-05-06 21:10:37+00:00
5,-24.0,115.0,2021-05-06 21:10:37+00:00
6,5.0,116.0,2021-05-06 21:10:37+00:00
7,36.0,116.0,2021-05-06 21:10:37+00:00
8,74.0,116.0,2021-05-06 21:10:37+00:00
9,124.0,116.0,2021-05-06 21:10:37+00:00
10,-79.0,116.0,2021-05-06 21:10:37+00:00
11,-31.0,116.0,2021-05-06 21:10:37+00:00
12,8.0,117.0,2021-05-06 21:10:37+00:00
13,49.0,117.0,2021-05-06 21:10:37+00:00
14,93.0,117.0,2021-05-06 21:10:37+00:00
15,-123.0,117.0,2021-05-06 21:10:37+00:00
16,109.0,117.0,2021-05-06 21:10:37+00:00
17,31.0,117.0,2021-05-06 21:10:37+00:00
18,-28.0,116.0,2021-05-06 21:10:37+00:00
19,-58.0,116.0,2021-05-06 21:10:37+00:00
20,-72.0,116.0,2021-05-06 21:10:37+00:00
21,-72.0,116.0,2021-05-06 21:10:37+00:00
22,-61.0,116.0,2021-05-06 21:10:37+00:00
23,-40.0,116.0,2021-05-06 21:10:37+00:00
24,-19.0,99.0,2021-05-06 21:10:37+00:00
0,9.0,117.0,2021-05-06 21:10:38+00:00
1,51.0,117.0,2021-05-06 21:10:38+00:00
2,101.0,117.0,2021-05-06 21:10:38+00:00
3,-105.0,117.0,2021-05-06 21:10:38+00:00
4,-59.0,117.0,2021-05-06 21:10:38+00:00
5,-17.0,117.0,2021-05-06 21:10:38+00:00
6,24.0,118.0,2021-05-06 21:10:38+00:00
7,24.0,118.0,2021-05-06 21:10:38+00:00
8,-68.0,117.0,2021-05-06 21:10:38+00:00
9,85.0,117.0,2021-05-06 21:10:38+00:00
10,25.0,117.0,2021-05-06 21:10:38+00:00
11,5.0,117.0,2021-05-06 21:10:38+00:00
12,12.0,117.0,2021-05-06 21:10:38+00:00
13,27.0,117.0,2021-05-06 21:10:38+00:00
14,38.0,117.0,2021-05-06 21:10:38+00:00
15,49.0,117.0,2021-05-06 21:10:38+00:00
16,59.0,117.0,2021-05-06 21:10:38+00:00
17,80.0,117.0,2021-05-06 21:10:38+00:00
18,113.0,117.0,2021-05-06 21:10:38+00:00
19,-93.0,117.0,2021-05-06 21:10:38+00:00
20,-33.0,117.0,2021-05-06 21:10:38+00:00
21,33.0,118.0,2021-05-06 21:10:38+00:00
22,91.0,118.0,2021-05-06 21:10:38+00:00
23,117.0,118.0,2021-05-06 21:10:38+00:00
24,47.0,-119.0,2021-05-06 21:10:38+00:00
0,-63.0,117.0,2021-05-06 21:10:39+00:00
1,116.0,117.0,2021-05-06 21:10:39+00:00
2,79.0,117.0,2021-05-06 21:10:39+00:00
3,84.0,117.0,2021-05-06 21:10:39+00:00
4,114.0,117.0,2021-05-06 21:10:39+00:00
5,-102.0,117.0,2021-05-06 21:10:39+00:00
6,-71.0,117.0,2021-05-06 21:10:39+00:00
7,-47.0,117.0,2021-05-06 21:10:39+00:00
8,-24.0,117.0,2021-05-06 21:10:39+00:00
9,12.0,118.0,2021-05-06 21:10:39+00:00
10,55.0,118.0,2021-05-06 21:10:39+00:00
11,107.0,118.0,2021-05-06 21:10:39+00:00
12,-88.0,118.0,2021-05-06 21:10:39+00:00
13,-32.0,118.0,2021-05-06 21:10:39+00:00
14,-56.0,118.0,2021-05-06 21:10:39+00:00
15,87.0,118.0,2021-05-06 21:10:39+00:00
16,-14.0,117.0,2021-05-06 21:10:39+00:00
17,-76.0,117.0,2021-05-06 21:10:39+00:00
18,-100.0,117.0,2021-05-06 21:10:39+00:00
19,-95.0,117.0,2021-05-06 21:10:39+00:00
20,-74.0,117.0,2021-05-06 21:10:39+00:00
21,-49.0,117.0,2021-05-06 21:10:39+00:00
22,-19.0,117.0,2021-05-06 21:10:39+00:00
23,12.0,118.0,2021-05-06 21:10:39+00:00
24,41.0,90.0,2021-05-06 21:10:39+00:00
0,68.0,118.0,2021-05-06 21:10:40+00:00
1,101.0,118.0,2021-05-06 21:10:40+00:00
2,-117.0,118.0,2021-05-06 21:10:40+00:00
3,-71.0,118.0,2021-05-06 21:10:40+00:00
4,-76.0,118.0,2021-05-06 21:10:40+00:00
5,80.0,118.0,2021-05-06 21:10:40+00:00
6,-21.0,117.0,2021-05-06 21:10:40+00:00
7,-79.0,117.0,2021-05-06 21:10:40+00:00
8,-105.0,117.0,2021-05-06 21:10:40+00:00
9,-108.0,117.0,2021-05-06 21:10:40+00:00
10,-93.0,117.0,2021-05-06 21:10:40+00:00
11,-71.0,117.0,2021-05-06 21:10:40+00:00
12,-49.0,117.0,2021-05-06 21:10:40+00:00
13,-19.0,117.0,2021-05-06 21:10:40+00:00
14,32.0,118.0,2021-05-06 21:10:40+00:00
15,98.0,118.0,2021-05-06 21:10:40+00:00
16,-91.0,118.0,2021-05-06 21:10:40+00:00
17,-27.0,118.0,2021-05-06 21:10:40+00:00
18,48.0,119.0,2021-05-06 21:10:40+00:00
19,98.0,119.0,2021-05-06 21:10:40+00:00
20,56.0,119.0,2021-05-06 21:10:40+00:00
21,-25.0,118.0,2021-05-06 21:10:40+00:00
22,-53.0,118.0,2021-05-06 21:10:40+00:00
23,-24.0,118.0,2021-05-06 21:10:40+00:00
24,23.0,-121.0,2021-05-06 21:10:40+00:00
0,72.0,119.0,2021-05-06 21:10:41+00:00
1,120.0,119.0,2021-05-06 21:10:41+00:00
2,-81.0,119.0,2021-05-06 21:10:41+00:00
3,-26.0,119.0,2021-05-06 21:10:41+00:00
4,15.0,120.0,2021-05-06 21:10:41+00:00
5,46.0,120.0,2021-05-06 21:10:41+00:00
6,94.0,120.0,2021-05-06 21:10:41+00:00
7,-110.0,120.0,2021-05-06 21:10:41+00:00
8,-95.0,120.0,2021-05-06 21:10:41+00:00
9,110.0,120.0,2021-05-06 21:10:41+00:00
10,-85.0,119.0,2021-05-06 21:10:41+00:00
11,-93.0,118.0,2021-05-06 21:10:41+00:00
12,-51.0,117.0,2021-05-06 21:10:41+00:00
13,65.0,117.0,2021-05-06 21:10:41+00:00
14,-16.0,116.0,2021-05-06 21:10:41+00:00
15,-54.0,116.0,2021-05-06 21:10:41+00:00
16,-50.0,116.0,2021-05-06 21:10:41+00:00
17,10.0,117.0,2021-05-06 21:10:41+00:00
18,113.0,117.0,2021-05-06 21:10:41+00:00
19,-16.0,117.0,2021-05-06 21:10:41+00:00
20,-93.0,118.0,2021-05-06 21:10:41+00:00
21,90.0,119.0,2021-05-06 21:10:41+00:00
22,3.0,120.0,2021-05-06 21:10:41+00:00
23,-76.0,120.0,2021-05-06 21:10:41+00:00
24,92.0,48.0,2021-05-06 21:10:41+00:00
0,-113.0,121.0,2021-05-06 21:10:42+00:00
1,115.0,121.0,2021-05-06 21:10:42+00:00
2,-14.0,120.0,2021-05-06 21:10:42+00:00
3,-112.0,120.0,2021-05-06 21:10:42+00:00
4,126.0,120.0,2021-05-06 21:10:42+00:00
5,111.0,120.0,2021-05-06 21:10:42+00:00
6,-1.0,119.0,2021-05-06 21:10:42+00:00
7,-10.0,118.0,2021-05-06 21:10:42+00:00
8,-33.0,117.0,2021-05-06 21:10:42+00:00
9,-94.0,117.0,2021-05-06 21:10:42+00:00
10,-114.0,117.0,2021-05-06 21:10:42+00:00
11,-95.0,117.0,2021-05-06 21:10:42+00:00
12,-51.0,117.0,2021-05-06 21:10:42+00:00
13,-24.0,117.0,2021-05-06 21:10:42+00:00
14,-52.0,117.0,2021-05-06 21:10:42+00:00
15,105.0,117.0,2021-05-06 21:10:42+00:00
16,-15.0,116.0,2021-05-06 21:10:42+00:00
17,-98.0,116.0,2021-05-06 21:10:42+00:00
18,99.0,116.0,2021-05-06 21:10:42+00:00
19,79.0,116.0,2021-05-06 21:10:42+00:00
20,72.0,116.0,2021-05-06 21:10:42+00:00
21,63.0,116.0,2021-05-06 21:10:42+00:00
22,56.0,116.0,2021-05-06 21:10:42+00:00
